tree
version=v4
num_class=1
num_tree_per_iteration=1
label_index=0
max_feature_idx=136
objective=binary sigmoid:1
feature_names=Column_0 Column_1 Column_2 Column_3 Column_4 Column_5 Column_6 Column_7 Column_8 Column_9 Column_10 Column_11 Column_12 Column_13 Column_14 Column_15 Column_16 Column_17 Column_18 Column_19 Column_20 Column_21 Column_22 Column_23 Column_24 Column_25 Column_26 Column_27 Column_28 Column_29 Column_30 Column_31 Column_32 Column_33 Column_34 Column_35 Column_36 Column_37 Column_38 Column_39 Column_40 Column_41 Column_42 Column_43 Column_44 Column_45 Column_46 Column_47 Column_48 Column_49 Column_50 Column_51 Column_52 Column_53 Column_54 Column_55 Column_56 Column_57 Column_58 Column_59 Column_60 Column_61 Column_62 Column_63 Column_64 Column_65 Column_66 Column_67 Column_68 Column_69 Column_70 Column_71 Column_72 Column_73 Column_74 Column_75 Column_76 Column_77 Column_78 Column_79 Column_80 Column_81 Column_82 Column_83 Column_84 Column_85 Column_86 Column_87 Column_88 Column_89 Column_90 Column_91 Column_92 Column_93 Column_94 Column_95 Column_96 Column_97 Column_98 Column_99 Column_100 Column_101 Column_102 Column_103 Column_104 Column_105 Column_106 Column_107 Column_108 Column_109 Column_110 Column_111 Column_112 Column_113 Column_114 Column_115 Column_116 Column_117 Column_118 Column_119 Column_120 Column_121 Column_122 Column_123 Column_124 Column_125 Column_126 Column_127 Column_128 Column_129 Column_130 Column_131 Column_132 Column_133 Column_134 Column_135 Column_136
feature_infos=[-1.7391834259033203:2.1873281002044678] [-1.6478695869445801:2.0962586402893066] [-1.5647803544998169:2.0136351585388184] [-1.4899148941040039:1.9394575357437134] [-1.4232741594314575:1.8737261295318604] [-1.3648576736450195:1.8164401054382324] [-1.3241651058197021:1.7788288593292236] [-1.2945797443389893:1.7939627170562744] [-1.2603650093078613:2.0758624076843262] [-1.2166562080383301:2.0974209308624268] [-1.160443902015686:2.0165181159973145] [-1.0896570682525635:2.064321756362915] [-1.0068871974945068:2.1106562614440918] [-0.90915709733963013:2.1771299839019775] [-0.80113691091537476:2.2825961112976074] [-0.68826973438262939:2.3805651664733887] [-0.63882678747177124:2.4481546878814697] [-0.65591526031494141:2.4998569488525391] [-0.65817779302597046:2.5653238296508789] [-0.66488730907440186:2.5221147537231445] [-0.8555336594581604:2.4413206577301025] [-0.86833834648132324:2.3840618133544922] [-0.86565589904785156:2.2409591674804688] [-0.7797551155090332:2.1797337532043457] [-1.0841877460479736:2.1614029407501221] [-1.4308524131774902:2.0620582103729248] [-1.6366665363311768:1.9191513061523438] [-1.8254417181015015:1.7312250137329102] [-1.9202775955200195:1.5516149997711182] [-2.2033448219299316:1.3473584651947021] [-2.6534385681152344:1.1458766460418701] [-2.9375624656677246:1.0691677331924438] [-2.8964071273803711:1.0182701349258423] [-2.6209216117858887:1.0153312683105469] [-1.9672813415527344:1.0222163200378418] [-1.2877312898635864:1.0987448692321777] [-0.66342759132385254:1.3781088590621948] [-0.67049169540405273:1.4357191324234009] [-0.67177027463912964:1.5244829654693604] [-0.67615479230880737:1.3697364330291748] [-0.67391806840896606:1.309401273727417] [-0.77278417348861694:1.216988205909729] [-0.78214722871780396:1.2687077522277832] [-0.67822211980819702:1.5027958154678345] [-0.67593681812286377:1.6759111881256104] [-0.67998087406158447:1.7528411149978638] [-0.67735743522644043:1.7343066930770874] [-0.68031680583953857:1.8940913677215576] [-0.67687547206878662:2.0411467552185059] [-0.68022686243057251:2.1347439289093018] [-0.67672491073608398:2.1180493831634521] [-0.68208664655685425:2.0443711280822754] [-0.68785721063613892:2.3278176784515381] [-0.69603323936462402:2.41339111328125] [-0.68564701080322266:2.0181429386138916] [-0.66425126791000366:1.7058380842208862] [-0.63047897815704346:1.5109990835189819] [-0.79989981651306152:1.3322867155075073] [-0.9627259373664856:1.3174220323562622] [-0.83332031965255737:1.3004671335220337] [-0.62303602695465088:1.2900781631469727] [-0.62908732891082764:1.6912268400192261] [-0.65896600484848022:1.8743280172348022] [-0.67422842979431152:1.7138135433197021] [-0.89532732963562012:1.3433690071105957] [-1.1747497320175171:1.0751444101333618] [-1.3727543354034424:0.99085426330566406] [-1.6713657379150391:0.88367986679077148] [-1.7223098278045654:0.75060045719146729] [-1.8947262763977051:0.59843027591705322] [-1.7363165616989136:0.44751104712486267] [-1.6730015277862549:0.31280896067619324] [-1.5550380945205688:0.20481951534748077] [-1.4075071811676025:0.12430305778980255] [-1.4517455101013184:0.30397361516952515] [-1.6804615259170532:0.9557119607925415] [-1.8599822521209717:1.3625956773757935] [-2.0371255874633789:1.0853415727615356] [-2.1728529930114746:1.1285310983657837] [-2.2573421001434326:0.92254304885864258] [-2.3058340549468994:0.73609095811843872] [-2.3315773010253906:0.27998179197311401] [-2.3403120040893555:0.3133491575717926] [-2.3343968391418457:0.36238053441047668] [-2.3124566078186035:0.5232703685760498] [-2.2730567455291748:0.45226269960403442] [-2.2140905857086182:0.47906926274299622] [-2.1362462043762207:0.50354379415512085] [-2.0426793098449707:0.67684948444366455] [-1.9374580383300781:0.53568804264068604] [-1.8240519762039185:0.65060514211654663] [-1.7074116468429565:1.0689502954483032] [-1.6520191431045532:1.4168777465820312] [-1.5958865880966187:1.6290324926376343] [-1.5394163131713867:1.6649528741836548] [-1.4922878742218018:1.6171708106994629] [-1.4547033309936523:1.5604556798934937] [-1.4384253025054932:1.5584532022476196] [-1.4264529943466187:1.5636097192764282] [-1.5819015502929688:1.563044548034668] [-2.0638625621795654:1.5685317516326904] [-2.4396805763244629:1.5680602788925171] [-2.4470291137695312:1.5700795650482178] [-2.3072562217712402:1.5662518739700317] [-1.8457138538360596:1.5674868822097778] [-1.4165751934051514:1.5623446702957153] [-1.2213733196258545:1.563502311706543] [-1.1215335130691528:1.5619508028030396] [-1.168958306312561:1.5694600343704224] [-1.225764274597168:1.5736351013183594] [-1.369315505027771:1.5835809707641602] [-1.5990560054779053:1.5860384702682495] [-2.1418814659118652:1.5904401540756226] [-2.465855598449707:1.5886306762695312] [-2.5047738552093506:1.5877697467803955] [-2.0072333812713623:1.5865405797958374] [-1.6131480932235718:1.5868538618087769] [-1.6321159601211548:1.611059308052063] [-1.6864286661148071:2.4495923519134521] [-1.7459897994995117:2.6529664993286133] [-1.820858359336853:2.5047237873077393] [-1.9280952215194702:1.7488086223602295] [-2.15055251121521:1.6308574676513672] [-2.3786196708679199:1.6220458745956421] [-2.643824577331543:1.8138364553451538] [-2.951240062713623:2.1645474433898926] [-3.3342947959899902:3.0688047409057617] [-3.8531808853149414:4.2020993232727051] [0:1] [0:1] [0:1] [0:1] [0:1] [0:1] [0:1] [0:1] [0:1]
tree_sizes=6802 5904 5876 5566 6823 6759 6858 6758 6866 6873 6473 6896 6436 6770 6928 6892 6443 6247 6426 6913 6900 6151 6578 6962 6245 6926 6645 6613 6686 6044 5734 6379 6441 6861 6900 6576 6574 6341 6697 6614 6950 6647 6155 6859 6511 5855 5641 6470 5739 6698 6066 6464 6809 6502 6261 6521 6435 6688 6931 6604 6283 6212 5477 5704 6824 6497 6760 6808 6830 5963 5735 6168 6878 6946 5732 6293 6644 5254 6920 5991 6295 6938 6717 6630 6958 6731 6123 6499 5692 6451 6328 6986 6702 5642 6525 6003 6180 6975 6845 6794 6948 6794 6614 6239 6501 6474 5146 6261 6354 5166 6782 5674 6025 6599 5153 6602 4531 6449 6261 6835 6989 5639 6598 6922 6754 6604 6245 5301 6051 6694 6905 6230 6208 5937 6480 6481 6947 6917 6509 6369 5795 6931 6748 6015 6679 6680 6640 6892 6727 6483 6709 4798 6890 6690 6391 6332 6361 6043 6481 5836 6806 6877 6841 6812 6572 6014 6912 4961 6866 6357 5216 6387 6111 6281 6020 5820 6037 5993 6190 6879 6804 6734 3797 6238 6502 6282 6494 6049 5369 5427 6370 6068 6687 6891 5952 6549 5419 6700 6511 6250

Tree=0
num_leaves=63
num_cat=0
split_feature=32 31 136 132 39 70 108 30 96 134 31 23 107 131 72 130 32 5 100 60 114 135 31 33 106 39 116 111 3 30 29 108 104 38 71 87 52 29 67 111 112 77 131 2 36 73 37 33 59 103 107 0 101 29 31 114 45 106 56 131 113 0
split_gain=94947.4 50741.8 63479.5 73841.3 42999.2 39307.1 24134.5 21022.1 19097.9 26992.2 15502.1 13403.2 13231.8 11554.9 10234.3 9990.22 9126.96 6228.46 5505.82 4336.23 4238.02 5098.54 4069.9 3611.91 3451.67 5511.58 3644.29 2663.33 2645.57 2604.01 2592.92 2547.96 2049.93 1892.35 1722.76 1716.89 1669.39 1549.8 1264.58 1256.33 1254.82 1374.54 1235.39 2146.59 1205.37 1195.08 830.681 720.072 643.544 551.996 544.183 461.008 1050.19 664.639 325.067 272.442 961.673 324.831 38.5297 449.068 32.6798 3.55271e-15
threshold=0.85876554250717174 1.0045922398567202 1.0000000180025095e-35 1.0000000180025095e-35 1.0216535329818728 -0.2251995652914047 -1.070531368255615 1.0875810980796816 -1.0319174528121946 1.0000000180025095e-35 0.99094155430793773 1.3990015983581545 -0.88201576471328724 1.0000000180025095e-35 -0.78073459863662709 1.0000000180025095e-35 0.95955905318260204 0.67531567811965953 -0.90250545740127552 0.74818214774131786 -1.0827876925468443 1.0000000180025095e-35 1.0081397294998171 0.9114152491092683 -0.88293287158012379 1.010741174221039 -1.4906552433967588 -1.0059871077537534 0.68931251764297496 1.0864589810371401 1.112927317619324 -1.0501180887222288 -0.93543606996536244 0.95662093162536632 -0.6933680772781371 -1.1607504487037656 1.1407772302627566 1.185715973377228 0.36136490106582647 -0.98323065042495716 -0.85330691933631886 -1.29391872882843 1.0000000180025095e-35 0.55807226896286022 0.92132258415222179 -0.88804289698600758 0.70777839422225963 0.79604578018188488 0.86803966760635387 -0.92850500345230091 -0.97065266966819752 0.65068635344505321 -0.90638184547424305 1.0474624037742617 1.0058104395866396 -1.4182904362678526 1.1935899257659914 -0.87562498450279225 1.0674262046813967 1.0000000180025095e-35 -1.3581416010856626 0.13877766579389575
decision_type=2 2 2 2 2 2 2 2 2 2 2 2 2 2 2 2 2 2 2 2 2 2 2 2 2 2 2 2 2 2 2 2 2 2 2 2 2 2 2 2 2 2 2 2 2 2 2 2 2 2 2 2 2 2 2 2 2 2 2 2 2 2
left_child=11 2 3 5 6 7 -5 -2 22 13 -7 24 33 15 29 -10 17 23 -15 44 51 30 40 -4 25 26 36 -21 -23 32 -22 -6 39 -11 49 -14 -1 -19 50 -13 41 -3 45 -44 -18 -24 -36 -34 -28 -31 -27 53 -53 -16 -42 56 57 -26 60 -60 -57 -58
right_child=1 8 16 4 31 10 -8 -9 9 12 -12 14 35 18 20 -17 19 37 -20 27 21 28 42 -25 55 38 48 -29 -30 34 -32 -33 47 -35 46 -37 -38 -39 -40 -41 54 -43 43 -45 -46 -47 -48 -49 -50 -51 -52 52 -54 -55 -56 58 61 -59 59 -61 -62 -63
leaf_value=-1.3271120162546974 -2.3918025009860444 -2.4755062111067625 -1.3181392218184189 -2.8970803448628439 -3.1900207642088887 -2.253623631825024 -1.3288385280464041 -1.8885892049449389 -1.6723616144487612 -1.9233196504895238 -1.6885101834165983 -3.2236742057788841 -0.99866694897011099 -1.8328814544501828 -2.0675701289457136 -2.1905992345023604 -2.1468460046048858 -1.9762472836289795 -2.4916382576359899 -2.9944925436044887 -2.8109839466180291 -2.9093378367790441 -1.8432393286549271 -1.5916266882814138 -1.1003466313659898 -3.2066232942121839 -3.0183688941702465 -1.7924510305731276 -1.6370810440689552 -2.5497545412317031 -1.5013291023919184 -2.4595331751422504 -3.1139842641140545 -2.8397396487479849 -2.0006436211579266 -2.5754014843372186 -2.9276684780172686 -3.0653340351885658 -1.1003466313659898 -2.3973264807315848 -1.6674823091114357 -1.6266815992002668 -2.855438400895896 -0.97503212222807445 -3.1126979737454104 -1.120115466346244 -2.7951473258558939 -1.4007459239565523 -1.979556213957294 -3.0401838408080737 -2.7941859207709405 -3.2236742057788841 -1.1070542577439721 -3.2236742057788841 -1.0451153311526538 -3.0644308586929467 -3.2236742057788841 -2.5224842661164146 -3.2236742057788841 -1.0451153311526573 -3.2185145929630283 -3.2236742057788841
leaf_weight=44.147890388965607 6879.6730052381754 27.221916854381561 1148.3780087828636 103.93422015011311 134.48561437427998 697.51271849870682 1757.9704722911119 944.10782673954964 2026.1810434609652 95.71416737139225 1596.4267356693745 23.101511746644974 638.70972913503647 191.99720583856106 5.8721838146448126 455.6242331713438 18.913478419184685 152.38404332101345 374.04881344735622 19.74810603260994 16.450244456529617 57.59312903881073 36.064679503440857 833.32995326817036 3.197271928191185 132.71735495328903 33.06712132692337 276.69799254834652 22.820740059018135 60.442120969295502 186.57072076201439 74.035805955529213 206.30441117286682 29.470541805028915 77.711857959628105 6.9814811199903479 7.6449597775936118 14.291710525751112 3.1972719281911841 90.370445594191551 11.633279353380201 63.765376433730125 6.145387962460517 500.1627844274044 40.782640412449837 62.394839152693748 15.842309936881064 2.4827656745910636 7.2756825238466254 36.998431220650673 42.151592239737511 5.1877079010009766 4.2765388935804349 32.463703349232674 30.123401924967766 14.210652589797972 18.075919717550281 3.2273022681474712 10.61858960986137 1.0387379974126822 438.5894762724638 1.6211587190628041
leaf_count=289 115046 477 7419 2240 3275 10743 11537 11247 19950 1172 15965 570 2176 2185 80 6743 272 1943 6612 444 341 1248 414 7562 14 3253 751 3042 217 1102 1532 1286 4874 619 1009 129 167 331 14 1516 114 600 130 1591 963 285 326 18 93 848 867 128 19 801 116 329 446 58 262 4 10800 40
internal_value=-3.11926 -1.92837 -2.01878 -2.11301 -1.56889 -2.22435 -1.41638 -2.33108 -1.63681 -1.72678 -1.86034 -2.72887 -1.19814 -1.86049 -2.45461 -1.7675 -1.56025 -1.48252 -2.26819 -2.02911 -2.02127 -1.87437 -1.17094 -1.43314 -3.03331 -2.7463 -2.11843 -1.87253 -2.54828 -2.73427 -1.60745 -2.93066 -2.90768 -2.13906 -2.44169 -1.01572 -1.56336 -2.06963 -3.07117 -2.56556 -1.67235 -1.88064 -1.06088 -0.997856 -2.80669 -1.38499 -2.13518 -3.09361 -2.83102 -2.73597 -3.10721 -2.89228 -2.26725 -3.04659 -1.2185 -3.19138 -2.87715 -1.81474 -3.20906 -3.02955 -3.21368 -3.22367
internal_weight=0 19248.9 14692.7 12188.1 2070.43 10117.7 1861.9 7823.78 4556.24 3818.73 2293.94 1605.27 770.876 3047.85 844.489 2481.81 2504.53 2148.38 566.046 356.142 331.235 283.435 737.512 1981.71 760.781 270.202 92.1357 296.446 80.4139 513.254 203.021 208.521 322.259 125.185 190.995 645.691 51.7929 166.676 178.066 113.472 132.744 90.9873 604.768 506.308 59.6961 98.4595 93.5542 208.787 40.3428 97.4406 174.869 47.8001 9.46425 38.3359 41.7567 490.579 26.1217 6.42457 464.457 11.6573 452.8 19.6971
internal_count=268644 236628 193315 171339 18338 153001 13777 126293 43313 39586 26708 32016 4096 35490 14629 26693 21976 17255 8797 4721 4366 3338 3727 14981 17387 5434 1300 3486 1465 10263 1873 4561 6978 1791 3285 2305 456 2274 4134 2086 1307 1077 2420 1721 1235 699 1335 4892 844 1950 4120 1028 147 881 230 11953 558 72 11395 266 11129 486
is_linear=0
shrinkage=1


Tree=1
num_leaves=54
num_cat=0
split_feature=31 31 133 73 39 36 58 37 36 72 39 32 114 135 30 74 46 72 105 70 91 45 45 72 72 83 31 127 73 31 109 37 107 98 68 107 32 38 107 54 67 23 104 52 29 106 61 113 34 113 114 114 7
split_gain=7299.3 3070.03 5047.78 3789.35 5878.07 5216.05 4251.26 6322.72 4784.71 3259.11 2500.67 2256.03 2100.96 1585.36 3005.39 1976.76 1510.05 1418.91 1384.89 1251.16 1185.77 1130.68 860.031 866.819 791.157 731.739 652.905 776.34 586.035 514.776 488.198 452.7 410.435 298.296 284.799 207.948 159.944 149.134 102.473 290.87 0.0572815 0.0152746 0.00736245 0.00641281 0.0249842 0.0040566 0.0118996 0.00265311 0.000521388 0.000464682 0.000378311 1.35553e-05 3.20714e-08
threshold=0.8799574375152589 0.98281896114349376 1.0000000180025095e-35 -0.72143995761871327 1.0185146331787112 0.88191327452659618 0.85331749916076671 0.93432939052581798 0.92890816926956188 -0.55533942580223072 1.0306091308593752 0.90764576196670543 -1.0132541060447691 1.0000000180025095e-35 1.0753024816513064 -1.0246891379356382 1.2061608433723452 -0.50481882691383351 -0.78950887918472279 -0.078238338232040391 -1.2057948112487791 1.1961897611618044 1.0412700176239016 -0.40435445308685297 -0.60281628370285023 -1.3985534906387327 0.98950728774070751 -2.2805504798889156 -0.74948856234550465 1.0045922398567202 -1.0295319557189939 0.98924386501312267 -0.99148902297019947 -0.98349979519844044 0.17861542105674746 -1.0355347990989683 0.89267629384994518 0.95764479041099559 -0.97065266966819752 1.0805239677429201 0.36136490106582647 1.3990015983581545 -0.93543606996536244 1.2238785624504092 0.96462491154670726 -0.87665769457817067 0.77967992424964916 -1.3793373107910154 0.86664116382598888 -1.3581416010856626 -1.3652722239494322 -1.4182904362678526 0.39060792326927191
decision_type=2 2 2 2 2 2 2 2 2 2 2 2 2 2 2 2 2 2 2 2 2 2 2 2 2 2 2 2 2 2 2 2 2 2 2 2 2 2 2 2 2 2 2 2 2 2 2 2 2 2 2 2 2
left_child=18 2 13 4 6 26 7 -3 -8 28 -11 33 17 16 30 -16 20 -7 21 -18 -2 25 24 -24 -13 41 27 -5 -6 -28 -15 -14 37 -4 -34 -23 -35 -27 40 -40 -37 47 -43 45 50 46 -20 -1 49 -47 -45 -48 -52
right_child=1 3 11 5 9 12 8 -9 -10 10 -12 22 31 14 15 -17 19 -19 43 -21 -22 35 23 -25 -26 32 29 -29 -30 -31 -32 -33 34 36 -36 38 -38 -39 39 -41 -42 42 -44 44 -46 48 51 -49 -50 -51 52 -53 -54
leaf_value=-0.10802599826932419 -0.075286585604519507 0.33731984513009078 0.666895744114125 0.83335851139265749 -0.068451442659785811 0.31566898136718091 0.46654065627880698 0.10156315050195169 0.33247329987916907 0.4133324208505294 -0.0079446943202069152 -0.10914646164063845 0.53818828982369393 0.178833168847818 0.051017794728319313 0.36975608048625652 0.025098319126491239 0.50995214212190432 -0.11858465652327164 0.55277072776851366 0.33860086459911309 0.3428345507842942 0.17358552495609669 0.81212281054041791 0.88560980746712648 0.31628406959824801 0.91628595740940821 0.40516552556654156 0.095807281361144372 0.569721342743292 -0.018870361180514557 0.39338091650250262 0.31405618353488368 -0.10236482263463237 0.01542276538831349 -0.10496419158620639 0.0050420334559800935 -0.11535104568161358 0.74785031747575026 -0.012962244654930453 -0.12436516745584861 -0.10857700225078229 -0.10459854270300402 -0.10614412161684775 -0.1216474964713489 -0.1045491730252301 -0.10398268018123676 -0.10407481042179359 -0.10670711341266546 -0.10400215065690376 -0.10398085084532599 -0.10446789119333943 -0.10400078589182836
leaf_weight=1.7881987690925587 69.680023342370987 24127.289379321039 5.8192345499992362 79.22712168097496 383.58791043236852 2141.9462585411966 5486.3367874808609 1193.8529475666583 5171.024272467941 562.82792749255896 187.95839995890856 10.44174140691757 993.67287090420723 180.53727470338345 236.20370132476091 1103.9935391843319 264.23096220567822 455.92460690066218 0.75608267635106985 54.142250038683414 10503.711960639805 14.294815529137848 575.86368103325367 22.074596866965294 34.123209826648235 10.279390618205069 231.67900461703539 90.948928982019424 500.74769465625286 52.588442251086235 405.30241943895817 275.81174775958061 430.58254433050752 300.39739590883255 34.492788154631853 138.64393905550241 257.4819046035409 36.172247748821974 5.2998924776911727 96.915654573589563 1.5387236326932896 17.654509238898758 6.3154509067535392 1.0288590975105756 1.0192616879940031 16.4620411247015 1.3996974080801015 34.229022774845362 0.73104211688041587 274.01419809088111 2.7245894446969032 0.97811671346425977 1.1466561816632745
leaf_count=26 1276 93962 27 315 3348 11594 23942 9575 25877 1727 1440 136 1710 1815 2467 8182 3288 1524 12 172 32068 19 5822 62 120 38 724 431 3315 49 6095 1196 3364 3965 477 3496 3055 565 66 1921 12 275 153 21 15 405 38 913 14 7406 74 24 31
internal_value=0 0.336722 0.296219 0.350267 0.340078 0.438948 0.348505 0.326204 0.40149 0.154643 0.307866 0.100645 0.401289 0.314623 0.230991 0.31358 0.329412 0.349766 0.0798414 0.114834 0.335873 0.146544 0.228744 0.197159 0.652535 0.22485 0.759432 0.604515 0.0245587 0.852173 0.0420556 0.506727 0.263599 -0.045363 0.291908 -0.0277996 -0.0527926 -0.0198335 -0.0496568 0.026486 -0.105177 -0.105573 -0.107529 -0.104144 -0.107403 -0.104078 -0.107657 -0.104271 -0.10404 -0.104033 -0.10444 -0.104182 -0.103987
internal_weight=0 55959.4 14024 41935.4 37613.6 4321.8 35978.5 25321.1 10657.4 1635.12 750.786 1206.2 3867.36 12817.8 1926.04 1340.2 10891.8 2597.87 1128.47 318.373 10573.4 828.207 642.503 597.938 44.565 571.514 454.443 170.176 884.336 284.267 585.84 1269.48 511.527 563.699 465.075 256.693 557.879 46.4516 242.398 102.216 140.183 59.9872 23.97 300.261 5.91937 294.341 3.1339 36.0172 291.207 290.476 4.9001 2.37781 3.87125
internal_count=268644 249279 68550 180729 163186 17543 153356 103537 49819 9830 3167 13187 16024 55363 18559 10649 36804 13118 19365 3460 33344 11325 6140 5884 256 5811 1519 746 6663 773 7910 2906 4444 7047 3841 5514 7020 603 5495 1987 3508 1367 428 8040 141 7899 74 939 7825 7811 126 62 105
is_linear=0
shrinkage=0.1


Tree=2
num_leaves=54
num_cat=0
split_feature=31 106 38 70 35 30 58 31 31 134 60 73 41 103 38 73 39 81 72 105 73 40 43 52 70 36 60 72 106 30 31 36 71 54 78 6 68 41 27 94 126 72 32 30 106 61 52 30 113 45 114 114 22
split_gain=3666.48 1660.25 2212.16 3056.22 4249.89 3362.25 2892.9 2005.91 1915.66 1594.33 1421.41 1269.28 1317.41 846.184 825.576 1378.47 817.633 788.195 768.474 705.505 625.848 857.256 593.145 579.574 537.196 770.328 479.159 396.261 359.851 346.544 337.974 318.197 314.896 296.22 288.423 209.96 175.013 160.59 161.57 119.551 21.5509 10.2887 0.22695 0.00858695 0.00300104 0.0089394 0.00271305 0.0108589 0.000339875 0.000644884 0.000271757 9.91881e-06 6.78634e-06
threshold=0.86943095922470104 -0.80268004536628712 0.97907119989395153 -0.26465323567390436 0.90819501876831066 1.0349281430244448 0.88134130835533153 0.99833422899246227 1.0019749999046328 1.0000000180025095e-35 0.74388653039932262 -0.76339197158813465 1.0662210583686831 -0.80622857809066761 0.95715627074241649 -0.76250526309013356 0.9851846992969514 -1.1362346410751341 -0.61524382233619679 -0.78950887918472279 -0.76843398809432972 1.0367785692214968 1.0994747281074526 1.1439600586891177 -0.26279166340827936 0.91108199954032909 0.53184279799461376 -0.7890101671218871 -0.98215696215629567 1.0551363229751589 0.99070614576339733 0.9358748495578767 -0.46283739805221552 1.0770245194435122 -1.2022154331207273 1.052027761936188 0.070427708327770247 0.87690338492393505 1.4638392925262453 -0.9245157241821288 -2.7244794368743892 -0.31359159946441645 0.86222606897354137 1.048925042152405 -0.87665769457817067 0.77967992424964916 1.2238785624504092 0.89785152673721325 -1.3581416010856626 1.1935899257659914 -1.3652722239494322 -1.4182904362678526 1.5139592289924624
decision_type=2 2 2 2 2 2 2 2 2 2 2 2 2 2 2 2 2 2 2 2 2 2 2 2 2 2 2 2 2 2 2 2 2 2 2 2 2 2 2 2 2 2 2 2 2 2 2 2 2 2 2 2 2
left_child=19 2 3 4 5 -2 20 10 9 -5 29 22 -13 -10 32 -16 24 -6 43 23 30 -22 -8 26 25 -9 37 34 39 42 -4 -20 -12 -29 -28 41 -26 38 -1 -25 -41 -30 -3 -18 45 -21 48 50 49 -46 -48 -47 -50
right_child=1 7 6 8 17 -7 11 16 13 -11 14 12 -14 -15 15 -17 18 -19 31 44 21 -23 -24 28 36 -27 27 33 35 -31 -32 -33 -34 -35 -36 -37 -38 -39 -40 40 -42 -43 -44 -45 46 51 47 -49 52 -51 -52 -53 -54
leaf_value=-0.084992001171636425 0.10454626528829523 -0.10369013796033484 0.15213895394706478 0.27624382738588221 0.072264681127075819 0.24451167356312775 0.20892425830983929 0.56801733058106929 0.32651375671551147 0.08974698378849072 0.055802662812070608 0.30785848453265746 0.20581679632054525 0.44567827657079556 0.17046438829782073 0.31420670599230544 -0.11292134052355095 0.28495608828454061 0.50907586677782768 -0.11681493752637316 0.17963862775115677 0.036836134715825662 -0.050328775431750822 0.74504095686419125 0.6987648913564698 -0.11369308861752064 0.68869778726924102 0.13061249607427913 -0.10564572486883501 0.69489631673478147 -0.084159276890626078 0.3508984871879326 0.5798440236566077 0.3920350559246511 -0.10967800968711268 0.86155921682412218 0.37179934646187951 0.79444507144766097 0.18157222985171462 0.31187633474445614 0.10165173146232301 -0.049118421608139805 -0.1136198598334543 -0.11959279172483564 -0.10639799413930509 -0.10358935469624669 -0.10553198563903415 -0.11728534682846375 -0.1036059313075921 -0.1039106945906092 -0.1035935749557691 -0.10402485064745196 -0.1039138646711087
leaf_weight=88.015965554863214 1790.4162886887789 31.857802793383598 76.96148357540369 7355.024883646518 1876.9845606274903 41448.387956216931 137.90694768726826 53.039646916091442 2289.974952634424 488.85805988684297 12.752380341291426 1657.8420847021043 5342.3147317618132 805.50469778105617 1001.8100853413343 1997.1744896844029 29.188078947365288 192.06283738836646 175.61273268610239 0.69396602734923307 880.6935782507062 804.27971906214952 245.08535811305046 5.2634932771325138 172.47780824452639 24.110972806811333 28.278352562338114 178.29495587944984 152.90950182825327 5.5978599786758414 283.48399228230119 461.09690827131271 113.72786356508732 57.265242621302605 5.3869663104414931 2.3283313438296309 18.087479300796986 2.4955950155854216 30.658615607768297 9.8686971217393911 9.6395786963403189 40.788051299750805 82.947138719260693 2.0658422708511344 1.1271290108561505 1.2710621766746049 0.93607448041439045 0.72772761434316624 238.40936685353518 13.862838026136158 3.1811327263712874 0.88861374184489217 0.71784000471234222
leaf_count=1347 10833 932 608 17576 12310 143647 680 143 4938 3703 81 4596 23089 1748 4747 5101 289 1031 196 12 4248 4931 2185 6 217 231 109 1564 3574 10 2493 833 229 395 77 7 20 4 263 3 65 1046 797 16 21 38 21 13 7097 385 95 24 20
internal_value=0 0.239846 0.235956 0.24347 0.232016 0.238716 0.19113 0.300942 0.290909 0.264621 0.263756 0.220285 0.229983 0.357523 0.276744 0.26619 0.429942 0.0920081 0.370762 0.033635 0.0858915 0.111475 0.0430224 0.0924718 0.577599 0.35497 0.165705 0.240029 -0.0370134 -0.0734024 -0.0337054 0.394526 0.527008 0.194165 0.560945 -0.0823957 0.667731 0.000567081 -0.0161273 0.322109 0.207999 -0.0937424 -0.110864 -0.113362 -0.103716 -0.106941 -0.103681 -0.106025 -0.103636 -0.104098 -0.104034 -0.103769 -0.103607
internal_weight=0 69857.3 65675.8 56247.2 45307.9 43238.8 9428.57 4181.55 10939.4 7843.88 3245.87 7383.15 7000.16 3095.48 3125.46 2998.98 935.679 2069.05 667.964 873.009 2045.42 1684.97 382.992 611.193 267.716 77.1506 390.396 269.226 220.798 120.403 360.445 636.71 126.48 235.56 33.6653 196.026 190.565 121.17 118.675 24.7718 19.5083 193.698 114.805 31.2539 261.816 2.85364 258.962 4.84493 254.117 14.99 4.11721 2.15968 239.127
internal_count=268644 252458 238616 195786 167821 154480 42830 13842 27965 21279 11897 30550 27685 6686 10158 9848 1945 13341 1334 16186 12280 9179 2865 8460 611 374 3759 2145 4701 1739 3101 1029 310 1959 186 4627 237 1614 1610 74 68 4620 1729 305 7726 74 7652 129 7523 406 116 62 7117
is_linear=0
shrinkage=0.1


Tree=3
num_leaves=51
num_cat=0
split_feature=28 72 35 38 73 94 59 94 29 133 72 59 96 126 96 39 60 122 73 29 103 30 54 6 30 56 32 107 41 131 62 30 30 109 33 70 116 127 134 25 35 120 122 49 58 89 32 105 81 105
split_gain=2316.87 1417.96 3534.16 2395.11 2942.75 2046.14 1788.42 1610.7 1595.35 2140.64 2073 1378.29 1344.21 1095.78 843.916 833.597 773.714 708.219 654.194 645.791 431.112 407.874 342.361 339.803 326.986 311.153 263.038 220.842 296.317 266.273 209.983 167.953 142.423 208.072 132.379 177.761 122.028 114.083 111.607 95.7221 91.3501 80.6695 55.4333 17.236 126.531 0.539874 0.050334 0.0368542 0.00913882 0.00289995
threshold=0.9602777659893037 -0.6415250003337859 0.89929923415184032 0.97668913006782543 -0.76843398809432972 -0.85373729467391957 0.81774383783340465 -0.97963258624076832 1.1455963850021365 1.0000000180025095e-35 -0.60017117857933033 0.7878968119621278 -1.0009163022041319 -1.147092819213867 -1.0090630054473875 1.0061676502227785 0.75773340463638317 -1.3584644198417661 -0.85004034638404835 1.0910583138465884 -0.90877315402030934 1.0676333308219912 0.87171056866645824 0.65231710672378551 1.0707712769508364 0.93850788474082958 0.94034513831138622 -0.95686262845993031 1.0918255448341372 1.0000000180025095e-35 0.71848735213279735 1.082359313964844 1.0818756222724917 -1.0715943574905393 0.83711823821067821 -0.085266303271055208 -1.5072698593139646 -2.0841774940490718 1.0000000180025095e-35 1.0412638187408449 0.89038926362991344 -1.7492870092391966 -2.0031241178512569 1.1948379278182986 0.92446017265319835 -0.4531023502349853 0.85876554250717174 -0.83763310313224781 -1.3835716247558592 -0.78950887918472279
decision_type=2 2 2 2 2 2 2 2 2 2 2 2 2 2 2 2 2 2 2 2 2 2 2 2 2 2 2 2 2 2 2 2 2 2 2 2 2 2 2 2 2 2 2 2 2 2 2 2 2 2
left_child=27 2 5 8 15 13 19 -8 9 11 -11 -3 18 14 -2 16 -5 37 23 -6 31 -19 -15 -4 -22 -20 -17 28 30 43 36 -10 40 -34 41 -36 39 -14 46 -1 -7 -32 -38 44 -30 -45 47 48 -29 -49
right_child=1 3 12 4 6 32 7 -9 20 10 -12 -13 17 22 -16 26 -18 21 25 -21 24 -23 -24 -25 -26 -27 -28 38 29 -31 34 -33 33 -35 35 -37 42 -39 -40 -41 -42 -43 -44 45 -46 -47 -48 49 -50 -51
leaf_value=-0.12170177152342887 0.20766715197274871 0.18862580398411166 -0.11998354129101868 -0.041163258459071511 -0.023131844505713126 -0.081010396123417774 0.27362419153580836 0.17597027783130731 -0.12490024726417735 -0.019350730398536919 0.17533504275818129 0.23666723482982596 0.15601992773399359 -0.044804989013376123 0.172576441768509 0.14803940832565066 0.16748660972675244 -0.072474285820738601 0.0091210609397289529 0.12820991353590369 0.24261534474626822 0.13510357736933862 0.15738494279697635 0.15373972544549813 0.34614552552350231 0.33801633024964017 -0.071089789831527153 -0.10533668174924185 -0.10606392060537032 0.28914001260195715 0.26404801609624079 0.20369131055716336 0.30237779583518609 -0.038539949712252081 0.67658566991755387 -0.11368557672310314 -0.11847653070357143 0.6013521751443045 0.4172425787058397 0.21439247279886092 0.36102387698508692 -0.11101835556560169 0.18671066570919839 -0.13162284617576545 0.55422848242819667 -0.10449686249761336 -0.11631536698661533 -0.1045819905449905 -0.1092109817774233 -0.10328710349583686
leaf_weight=10.4270344953984 9894.6436024736613 9490.8069405481219 80.158465355634689 262.7487702332437 508.39794759452343 319.10145291313529 2008.7043080255389 10612.756591109559 28.832043956965208 708.28750772029161 2400.734737413004 16106.266318436712 8.2714355699718016 277.28977235220373 22298.878737140447 60.25718205794692 549.20667845197022 937.66780154779553 33.838010549545288 633.01316822692752 409.00568998232484 105.28865694999695 119.98298397101462 104.44863642752171 1200.4565019160509 191.85037891566753 602.59497914835811 10.801517870277168 21.042855652049187 20.531397502869368 27.177395133301616 33.779716402292252 26.685800790786743 54.392666779458523 14.368626292794945 3.5494488924741736 37.709119165316224 18.888808213174343 4.1854167394340029 45.242639753967524 4.7446813434362403 7.2680301107466212 7.0670650396496049 7.7625881470739833 3.3664774503558865 133.83949836529791 3.3111477121710768 19.245140416547656 13.953414058312772 170.70254820398986
leaf_count=131 23719 23902 624 2016 3232 2947 3287 36133 207 5211 12427 38816 45 4940 75633 409 2237 6980 190 3287 1086 502 725 434 1978 535 4681 264 450 17 45 86 86 366 82 56 508 24 16 168 19 141 37 49 7 3607 34 492 216 5560
internal_value=0 0.187072 0.171767 0.19864 0.166286 0.178549 0.180671 0.191512 0.214868 0.209338 0.130982 0.218855 0.0206124 0.181325 0.183362 0.0320389 0.0999675 -0.0383908 0.174502 0.0608005 0.309821 -0.0515189 0.0162597 0.034886 0.319836 0.288704 -0.0511696 -0.0167604 0.0339845 -0.0505899 0.137229 0.0523784 -0.0448594 0.0736682 0.299585 0.520038 0.052591 0.46573 -0.0942602 0.151441 -0.0745341 0.184909 -0.0703086 -0.0926059 -0.014998 -0.105984 -0.10408 -0.103891 -0.10752 -0.103418
internal_weight=0 80092 34476.1 45615.8 15237.7 32995.7 13762.9 12621.5 30378.2 28706.1 3109.02 25597.1 1480.41 32590.8 32193.5 1474.81 811.955 1070.12 410.295 1141.41 1672.07 1042.96 397.273 184.607 1609.46 225.688 662.852 561.551 339.352 186.543 152.809 62.6118 404.925 81.0785 52.3635 17.9181 100.446 27.1602 222.199 55.6697 323.846 34.4454 44.7762 166.011 24.4093 141.602 218.014 214.703 24.7549 189.948
internal_count=268644 256764 117769 138995 55282 108435 45939 39420 83713 80356 17638 62718 9334 105017 99352 9343 4253 7551 1783 6519 3357 7482 5665 1058 3064 725 5090 11880 5298 4130 1168 293 3418 452 324 138 844 69 6582 299 2966 186 545 4113 457 3656 6566 6532 480 6052
is_linear=0
shrinkage=0.1


Tree=4
num_leaves=63
num_cat=0
split_feature=52 71 37 29 108 38 34 31 131 74 72 37 71 73 37 36 72 103 17 103 103 107 129 52 70 69 48 106 58 104 45 40 108 102 97 120 38 134 106 33 49 60 105 38 71 31 24 16 38 35 74 27 65 38 106 104 89 69 32 101 31 31
split_gain=1867.97 1282.76 2746.72 1631.69 1426.17 1263.95 1177.95 1152.27 2185.08 1509.55 1029.49 747.601 1709.06 705.742 608.255 558.273 433.501 371.555 367.563 357.626 413.848 329.036 305.787 288.757 457.804 390.94 265.363 374.256 260.653 259.985 527.879 261.019 247.532 240.734 234.491 231.313 224.701 213.813 250.812 212.823 175.867 185.342 184.708 174.417 261.365 111.245 74.8099 73.8049 73.5119 59.709 66.9877 46.6409 42.3396 34.3264 32.786 29.6993 134.668 6.51703 0.360056 0.098535 0.0348253 0.0018396
threshold=1.1423069238662722 -0.36403164267539972 0.97428917884826671 1.0474624037742617 -1.0660058259963987 0.95871695876121532 0.89649316668510448 1.0028576850891116 1.0000000180025095e-35 -0.93034273386001576 -0.47241194546222681 0.98924386501312267 -0.32968243956565851 -0.74748864769935597 0.98440837860107433 0.93823441863060009 -0.59849119186401356 -0.98933833837509144 1.0287485122680666 -0.78451019525527943 -0.79227837920188893 -1.0162285566329954 1.0000000180025095e-35 1.1293017864227297 -0.17468337714672086 0.02590873092412949 1.1715719103813174 -0.94132617115974415 0.69592475891113292 -0.77549210190772999 1.1961897611618044 1.0591393113136294 -1.070531368255615 -0.7370450198650359 -0.870660901069641 -1.273041248321533 1.0196890830993655 1.0000000180025095e-35 -0.98215696215629567 0.91335612535476696 1.2455725669860842 0.80799663066864025 -0.97444316744804371 1.0226609110832217 -0.38758972287178034 0.95300164818763744 1.0729786753654482 0.86988285183906566 0.96846699714660656 0.93140074610710155 -0.91152819991111744 0.94487810134887706 0.37770798802375799 0.99815353751182567 -0.87511241436004628 -0.82003048062324513 -0.69418302178382862 -0.020628295838832852 0.85696727037429821 -0.71650183200836171 0.97671586275100719 0.98193559050560009
decision_type=2 2 2 2 2 2 2 2 2 2 2 2 2 2 2 2 2 2 2 2 2 2 2 2 2 2 2 2 2 2 2 2 2 2 2 2 2 2 2 2 2 2 2 2 2 2 2 2 2 2 2 2 2 2 2 2 2 2 2 2 2 2
left_child=1 2 3 17 5 21 19 8 -5 -9 15 23 36 49 18 16 54 28 -15 20 37 58 -18 25 -25 -6 27 -7 -1 55 31 -31 -23 -14 -16 45 -13 38 -2 -19 41 60 -43 44 -17 -22 -32 -45 -39 50 -4 -42 -28 -51 -8 56 -21 -57 -3 -53 -12 -37
right_child=6 4 13 7 11 26 10 9 -10 -11 40 12 33 14 34 43 22 39 -20 29 35 32 -24 24 -26 -27 52 -29 -30 30 46 -33 -34 -35 -36 61 -38 48 -40 -41 51 42 -44 47 -46 -47 -48 -49 -50 53 -52 59 -54 -55 -56 57 -58 -59 -60 -61 -62 -63
leaf_value=-0.023567235682159439 0.23200546817500978 -0.1577859358918571 -0.11687062942339438 0.14840134671107624 0.21635166238249184 -0.10111104685543762 0.063707714771735854 0.15467432173895734 0.030716743149464668 0.20594285181394034 -0.11828139311706827 0.03215147041246437 0.15496936677635229 0.1290596134323618 0.42649614742890823 -0.11986577517110189 0.17787667377757474 -0.10406149471690368 -0.018095470705110906 0.61515235776984944 0.12690410640667851 0.50874952276065255 0.47176417968896223 0.048072889495655753 0.19435802312249564 -0.028418280645241784 0.11343190135035429 0.19304171636375611 0.43928417760146443 0.091207886859071566 -0.10373850083126152 0.47717660593573563 0.23506254798591664 0.27930818820006037 -0.11734468595141141 -0.11921201733926885 -0.10768001561571011 0.14308853024911669 -0.04042505658689044 0.39376547149932806 0.20187048748626238 -0.14134708519520842 0.27406203700738496 0.071816932861435631 0.076263108505242816 0.51854554885759785 -0.018381321612302003 -0.12571696017189532 0.54400395621136621 -0.030821521946393145 0.46758415575263168 -0.14095667487495453 -0.11071098820361132 -0.12227681809477796 -0.1208560677725603 -0.12865347333870911 -0.13022773482124431 -0.096156060329402104 -0.11885771004355505 -0.12376469235530262 -0.13148545186979932 -0.12230496940747558
leaf_weight=24.654267784208059 41.652677398175001 2.7791691571474102 4.0176211781799793 44187.697545003146 7409.1332149468362 82.71011808142066 12.301690116524695 18997.564868908376 1636.1310222297907 8231.5555755645037 10.313208080828188 325.93484479933977 262.61907858401537 663.01900678873062 8.2461823448538762 84.736788153648376 224.97624430060387 324.82596302405 228.14672191441059 3.085410736501216 9.112311873584984 46.41183041036129 42.016508430242538 274.10480874031782 974.55716013908386 65.831876015290618 8.6902618370950204 90.669787399470806 24.021587755531073 217.79977500624955 225.76481720991433 19.054248055443168 114.75307177007198 382.51431981101632 205.68914506584406 6.0647159609943611 177.5055915787816 8.267750948667528 179.10976335965097 8.8205849900841695 5.8708089999854591 10.948634855449198 478.4498601667583 22.713398076593876 342.89813444763422 35.540173232555389 188.33221704140306 113.0995764285326 10.235710874199865 47.180676333606243 3.831097573041915 4.8601079508662233 278.68445398658514 315.34190405532718 44.232496947050095 184.04418625682592 11.304737336933611 92.837756028398871 16.377100251615047 10.615496419370171 2.4772651493549338 2.8158350065350533
leaf_count=289 87 12 36 146780 8682 659 70 41436 9650 16379 88 1256 632 2028 14 665 897 5534 1223 2 55 116 62 1023 2433 589 31 127 29 1173 7212 58 76 785 1237 47 948 29 2020 22 3 57 789 111 1495 61 2225 746 12 265 4 27 2801 2320 341 1377 92 1172 147 74 15 19
internal_value=0 0.154679 0.150088 0.152802 0.187389 0.0428554 0.0693587 0.153881 0.144199 0.170173 0.131798 0.196775 0.120935 0.0149983 0.0550366 0.0661619 0.17086 -0.0532466 0.0913865 -0.00195252 0.094579 0.267307 0.224126 0.20676 0.162246 0.214196 -0.0449861 0.0527174 0.20485 -0.03195 0.00318764 0.122258 0.313878 0.228693 -0.0963822 0.345921 -0.017151 0.038344 0.0109762 -0.0909005 0.242998 0.254947 0.264769 0.00604512 0.0373997 0.438623 -0.0649179 -0.0926813 0.364866 -0.104466 0.168412 -0.0381209 -0.103933 -0.110374 -0.0806955 -0.110478 0.0295902 -0.117757 -0.124505 -0.129164 -0.120839 -0.120193
internal_weight=0 85424 74910.7 73435.3 10513.3 641.076 2645.53 73052.9 45823.8 27229.1 1410.51 9872.2 1148.57 1475.47 1105.1 886.975 323.527 382.322 891.166 1235.02 292.799 180.321 266.993 8723.63 1248.66 7474.97 460.755 173.38 48.6759 942.223 650.951 236.854 161.165 645.133 213.935 53.533 503.44 239.266 220.762 333.647 523.535 502.189 489.398 563.448 427.635 44.6525 414.097 135.813 18.5035 370.371 7.84872 21.3464 287.375 362.523 56.5342 291.272 14.3901 276.882 19.1563 15.4756 12.7905 8.88055
internal_count=268644 247563 227246 220119 20317 3969 21081 214245 156430 57815 5440 16348 3621 7127 4502 4387 1370 5874 3251 15641 2330 351 959 12727 3456 9271 3618 786 318 13311 10668 1231 192 1417 1251 182 2204 2148 2107 5556 1053 949 846 3017 2160 116 9437 857 41 2625 40 104 2832 2585 411 2643 94 2549 159 101 103 66
is_linear=0
shrinkage=0.1


Tree=5
num_leaves=62
num_cat=0
split_feature=52 106 72 30 38 73 47 34 32 94 108 38 52 39 71 107 73 50 71 135 74 48 43 60 73 110 103 104 130 37 129 71 39 31 37 26 73 115 124 133 107 44 135 104 71 115 57 107 111 112 34 34 70 108 2 32 31 91 34 31 39
split_gain=1325.84 1227.07 1103.8 2608 1436.29 957.812 863.325 843.183 803.575 803.495 687.583 1062.34 661.951 661.423 1519.36 656.223 401.583 388.348 702.454 372.058 318.8 422.739 301.925 299.686 281.712 304.478 301.881 287.489 280.591 265.957 263.102 318.417 718.107 263.012 242.955 314.985 302.743 284.536 201.807 201.173 196.633 195.612 178.584 155.045 117.329 107.915 88.9175 83.5733 82.8792 278.765 389.371 59.0854 52.8967 46.12 28.8381 0.281069 0.270626 0.245001 0.161948 0.150456 0.00993754
threshold=1.1407772302627566 -0.96005079150199879 -0.55213522911071766 1.0322273373603823 0.99323841929435741 -0.81478580832481373 1.0881633162498476 0.89649316668510448 0.90685376524925243 -0.97864606976509083 -1.0638961195945738 0.95972174406051647 0.97912448644638073 1.0368084311485293 -0.32968243956565851 -0.95532163977622975 -0.74948856234550465 0.9906892478466035 -0.5342804193496703 1.0000000180025095e-35 -0.87451493740081776 0.96873188018798839 1.158289968967438 0.80799663066864025 -0.48048152029514307 -1.1851128935813902 -0.78451019525527943 -0.83234915137290943 1.0000000180025095e-35 0.9390610158443452 1.0000000180025095e-35 -0.42723131179809565 0.9755205810070039 0.99618372321128856 0.98440837860107433 1.1596571803092959 -0.76421868801116932 -1.1006245613098142 -1.6880849599838255 1.0000000180025095e-35 -0.95686262845993031 0.87370863556861889 1.0000000180025095e-35 -0.9329332411289214 -0.38139925897121424 -1.3554015755653379 0.9638902246952058 -0.96121796965599049 -1.2149595022201536 -1.2636262178421018 0.87072819471359264 0.89773318171501171 1.0000000180025095e-35 -1.0427340269088743 -0.1105077527463436 0.96399143338203441 1.0045922398567202 -0.36053444445133204 0.91182377934455883 0.99156174063682567 1.0048977136611941
decision_type=2 2 2 2 2 2 2 2 2 2 2 2 2 2 2 2 2 2 2 2 2 2 2 2 2 2 2 2 2 2 2 2 2 2 2 2 2 2 2 2 2 2 2 2 2 2 2 2 2 2 2 2 2 2 2 2 2 2 2 2 2
left_child=1 6 3 9 5 -5 8 22 20 12 11 44 -3 19 -15 23 -6 39 -19 -12 41 -22 24 47 26 53 27 -2 -11 -13 31 42 -33 60 36 38 56 -38 -36 -10 -27 -1 -8 58 -4 -45 -28 59 52 50 -50 -49 57 -26 -51 -37 -17 -24 -25 -9 -32
right_child=7 2 10 4 16 -7 30 15 17 28 13 29 -14 14 -16 34 -18 18 -20 -21 21 -23 48 43 25 40 46 -29 -30 -31 33 32 -34 -35 35 55 37 -39 -40 -41 -42 -43 -44 45 -46 -47 -48 51 49 54 -52 -53 -54 -55 -56 -57 -58 -59 -60 -61 -62
leaf_value=0.02881492696305556 -0.015133227696926413 -0.081747920921615674 -0.033054639959701496 0.12078204353253848 -0.061255395730797295 0.14446018452964901 -0.093216292855228533 -0.11909402603205169 -0.063764370019373171 -0.052485234861658875 0.17240782866536286 0.05758032653479675 0.10990538826698495 -0.0090695638900142855 0.19426711702509272 -0.1156186398400319 0.062338628703689662 -0.018266983855357771 0.14739350045794794 0.0013567096650164993 0.21216418723015709 0.0028792413382618103 -0.10964619177255318 -0.15816136780987627 -0.12060371654339271 0.18638916623450363 -0.13507444827569737 0.18466926304032216 0.072850237948042892 -0.089938152852475084 -0.12125412446258864 0.17520196966765189 -0.07371188492685779 0.46097498637956846 0.14392624747962532 -0.1250094901032209 0.06681438274811817 0.20339851601504672 -0.02501436587573997 0.23334255994417533 -0.10893042249450993 -0.13469906311224408 0.092586307055917694 0.097889638958463837 0.21913481447066652 0.25167812610956525 -0.029629238290153143 0.51750736039835454 -0.10550930902717973 0.040725687416838977 0.7706979327743454 0.052337301106952276 0.1942615843012333 0.15871849824127951 -0.11384879862021324 -0.13512250854005087 -0.1318065863202128 -0.10344078802513268 -0.13303596793473982 -0.13600325360553595 -0.11508621741772392
leaf_weight=127.36184687912464 171.78735613264143 212.15755899995565 19.561045259237289 32514.509325690567 378.35410906001925 35997.884753607213 436.74491479247808 26.951486483216286 24.064926154911518 994.85387353599072 12204.151191936806 220.77326270751655 1197.0069589428604 686.211031652987 791.1486610583961 42.711236875504255 861.48308026790619 324.6717459782958 1209.5483761206269 128.50129570066929 140.17159314826131 309.89160833135247 98.490486802533269 3.9894591458141786 54.626994570717216 232.1626346744597 128.63714097812772 123.99337236210704 217.70561824180186 273.75682062655687 7.9256800636649114 219.90261857956648 245.06766220554709 23.040696449577808 147.85773701965809 81.775130648165941 374.75264366716146 257.20584482699633 135.51249318756163 430.16526494175196 24.971171824261546 171.92019480094314 58.679721549153328 51.225792251527309 324.25024846196175 417.55436859279871 211.38541675917804 3.5361922681331626 10.036951934918763 15.243661619722841 10.251940241083501 11.985935993492602 6.0083821341395369 6.6285119950771323 57.963873730972409 41.393218539655209 13.620682202279566 179.73154386691749 7.1866207029670477 6.5388122275471678 3.8963577225804329
leaf_count=633 1849 4653 84 90949 2452 89892 2740 218 86 7191 18507 733 4990 2998 1510 392 3238 1425 3179 792 331 1720 1581 19 724 818 963 462 1070 2652 56 663 1693 14 502 577 1752 704 757 646 717 977 205 139 372 402 1503 2 316 420 20 47 7 29 635 240 77 6206 43 37 35
internal_value=0 0.130271 0.132679 0.127612 0.131293 0.133223 0.0741297 0.0622139 0.103125 0.0296976 0.157713 0.0697794 0.0810509 0.163051 0.0998203 0.110587 0.0246221 0.136383 0.112336 0.170626 0.0148718 0.0680608 0.00324042 0.202044 0.0331963 0.10998 -0.00525432 0.0686254 -0.0299822 -0.0240814 -0.00563079 -0.0154268 0.0440092 0.264229 0.0663991 0.00510413 0.102603 0.122404 0.063136 0.217602 0.15771 -0.0651144 -0.0712092 0.226097 0.204787 0.234873 -0.0695212 -0.0334965 -0.0724323 0.00923937 0.337237 0.158311 -0.0992979 -0.090378 -0.0816625 -0.128408 -0.119533 -0.105637 -0.142005 -0.122395 -0.119221
internal_weight=0 90755.4 87022.3 72374 69752.2 68512.4 3733.05 2955.72 2737.8 2621.72 14648.4 838.341 1409.16 13810 1477.36 1623.8 1239.84 1988.45 1534.22 12332.7 749.345 450.063 1331.92 528.969 954.193 318.389 635.803 295.781 1212.56 494.53 995.258 960.395 464.97 34.8627 1094.83 406.539 688.29 631.958 283.37 454.23 257.134 299.282 495.425 479.956 343.811 468.78 340.023 49.0124 377.727 93.4964 20.2889 15.5221 284.23 61.2555 73.2075 123.168 56.3319 278.222 11.1761 33.4903 11.822
internal_count=268644 246486 232083 204435 186531 180841 14403 22158 8997 17904 27648 3841 9643 23807 4508 5908 5690 5336 4604 19299 3661 2051 16250 907 7065 2288 4777 2311 8261 3385 5406 5301 2356 105 5001 2076 2925 2456 1259 732 1535 1610 2945 603 456 541 2466 304 9185 1391 336 49 7794 753 1055 817 469 7787 62 255 91
is_linear=0
shrinkage=0.1


Tree=6
num_leaves=63
num_cat=0
split_feature=31 131 98 133 73 32 45 32 38 71 71 134 106 130 1 39 83 73 108 73 45 20 55 31 73 100 15 89 105 107 115 4 68 49 31 103 31 101 38 69 71 40 58 63 34 54 130 118 75 74 117 96 72 65 105 103 121 130 103 73 120 60
split_gain=1134.74 2236.61 2603.06 1625.13 1758.66 1493.24 1435.04 1025.89 879.049 1821.99 1477.95 623.71 617.855 976.01 615.992 597.559 564.373 484.789 479.57 466.225 1197.15 370.461 364.909 383.62 361.218 477.518 403.076 326.202 302.026 285.344 267.458 227.166 215.797 372.494 191.054 182.583 182.395 162.083 159.489 443.813 300.526 275.447 193.295 183.181 173.053 150.073 148.764 137.599 120.856 115.967 99.7415 93.8054 86.5581 156.81 79.5708 77.6476 75.824 71.6239 72.0521 60.6716 56.9737 33.5726
threshold=1.0064356923103335 1.0000000180025095e-35 -0.99489235877990712 1.0000000180025095e-35 -0.91227200627326954 0.90339186787605297 1.1961897611618044 0.94781500101089489 0.92867386341094982 -0.44972330331802363 -0.42907820641994471 1.0000000180025095e-35 -0.8464481234550475 1.0000000180025095e-35 0.63529270887374889 0.97948569059371959 -1.3246743679046629 -0.76843398809432972 -0.8822711408138274 -0.79971009492874134 1.0760981440544131 1.2489938735961916 0.81059387326240551 0.98518651723861705 -0.79971009492874134 -0.85498881340026844 1.1424670219421389 -0.59112459421157826 -0.83434301614761341 -0.86626729369163502 -0.9426470398902892 0.55777066946029674 -0.032261671498417847 1.1136893033981325 1.0033069252967837 -0.80368152260780323 1.0091101527214053 -0.94255116581916798 0.94718131422996532 -0.12908769398927686 -0.47739259898662562 0.97292029857635509 0.84107095003128063 0.46656002104282385 0.92262011766433727 1.0316083431243899 1.0000000180025095e-35 -0.87645962834358204 -1.1048150658607481 -1.0526084303855894 -0.99234023690223683 -1.0299237966537473 -0.57765576243400563 0.39646136760711675 -0.87612757086753834 -0.83838447928428639 -1.5389669537544248 1.0000000180025095e-35 -0.83314621448516835 -0.7454366385936736 -1.0237727165222166 0.69849452376365673
decision_type=2 2 2 2 2 2 2 2 2 2 2 2 2 2 2 2 2 2 2 2 2 2 2 2 2 2 2 2 2 2 2 2 2 2 2 2 2 2 2 2 2 2 2 2 2 2 2 2 2 2 2 2 2 2 2 2 2 2 2 2 2 2
left_child=1 3 16 4 11 22 7 -6 9 -7 -10 14 13 15 -1 19 34 45 -13 20 -2 -19 23 -5 26 54 29 -8 32 -15 -18 -21 35 -34 49 -4 -27 -32 40 48 41 46 55 -43 -44 -17 -14 -36 51 -3 -50 -40 56 -54 -26 -41 -30 61 -59 -24 -28 -42
right_child=12 2 28 5 6 8 27 -9 10 -11 -12 18 38 24 -16 17 30 21 -20 31 -22 -23 59 -25 25 36 60 -29 52 -31 37 -33 33 -35 47 -37 -38 -39 39 42 57 43 44 -45 -46 -47 -48 -49 50 -51 -52 -53 53 -55 -56 -57 -58 58 -60 -61 -62 -63
leaf_value=-0.062741321202193362 0.13689125747313854 -0.11440898506062461 -0.02807127590990216 -0.085500888668703298 0.12884243172549112 0.079681011725671699 0.06213378540220002 0.10407021040050557 -0.10243172343462117 0.26981493118974259 0.08391442432544205 -0.12812766117919139 0.14540485089988878 -0.073678390295039226 0.050706069355760081 -0.063170828779408134 -0.12761764009761664 0.1349632994609439 0.33192252319361498 0.12733634471171487 -0.0011636417169897234 -0.091016946804800991 -0.12449884263650034 0.16001297750270421 0.031137436708369694 0.090212159057632385 0.35659158861281437 -0.066142294619542394 0.29463744881980342 0.076990067722575994 0.3142801075270602 0.18194366491356581 0.16585607092070512 -0.0097867207539837249 -0.1358719733112537 0.45705154125156533 -0.082211586837222905 0.097741354211633602 0.32747128913376328 0.27965084757238889 0.13467546370070282 -0.14095921432672934 0.21451117668820366 0.11314646737344186 0.1286656385300467 0.046293827596288611 0.25584202813711893 0.24638764856295398 -0.13085225610340001 0.20603528706470275 0.1470850724009215 -0.12971145976971654 0.17463641380049921 -0.13546833803022468 0.28526129678473144 -0.13977836394195639 -0.093485145519124943 0.17299440250829012 0.35660184392609762 -0.065202245284468066 0.14430697891722341 0.24353121921939686
leaf_weight=699.72265101782978 8236.536633297801 65.082057252526283 1204.8121928572655 114.71600027009845 35673.592049958184 3341.2679493650794 328.76183718256652 31460.712428703904 612.60785285383463 593.52289606630802 1394.3642861545086 28.69415145367384 310.44366478919983 457.30871921777725 1514.6309976279736 251.77064828574657 15.719198893755673 800.92052453383803 107.73291991278529 1031.7366451770067 679.98111763596535 79.76913046836853 277.45816749148071 142.9488333016634 13.679053112864493 181.23178794234991 27.79848150908947 499.34524621628225 5.0737123489379874 173.34206467866898 352.9872801490128 2911.7116743400693 185.39314982295036 346.23927216045558 11.560029745101927 7.8084045350551596 92.747457258403301 38.319999575614929 4.8001570701599112 5.3161237537860897 30.253857716917992 44.116794228553772 652.78500651568174 79.478339917957783 366.75815042108297 249.21468477323651 200.91436676681042 50.789148181676865 16.852950468659401 13.664734700694678 55.210210688412189 69.002279378473759 35.023739852011204 30.512173801660538 124.15207450091839 26.00355888903141 634.88434292003512 26.7607681453228 106.15940771996975 456.38574654050171 23.188760906457901 446.09038457274437
leaf_count=4373 10664 1291 6701 857 83297 12003 1728 81826 3922 1111 5406 176 376 2239 9336 1375 105 1699 155 1659 2623 358 2036 290 51 583 22 11364 1 519 470 2596 656 2036 66 9 490 120 1 3 45 233 617 229 749 889 169 59 102 54 139 436 62 174 162 134 5276 37 71 4134 43 237
internal_value=0 0.104835 0.0200885 0.108124 0.112678 0.061933 0.11562 0.117234 0.0808908 0.108361 0.0270342 0.0276427 0.132759 0.125321 0.0148574 0.132311 0.217084 0.0698189 0.235162 0.139026 0.126363 0.114495 -0.051674 0.0507068 0.0342741 0.10822 -0.0104002 -0.0152162 -0.0239886 -0.0322653 0.276828 0.167657 -0.00165787 0.0514642 0.0447396 -0.0249474 0.0318433 0.293075 0.179488 0.153425 0.204557 0.156415 0.176113 0.0224444 0.18363 -0.00871774 0.188796 0.175514 -0.0100306 -0.0588031 0.0820856 -0.099976 -0.0791989 0.030258 0.260041 -0.0685855 -0.090408 0.254729 0.319636 -0.0876216 0.260046 0.236618
internal_weight=0 80244.3 2997.87 77246.5 70313.2 6933.27 67962.4 67134.3 5941.76 3934.79 2006.97 2350.78 17776 15335.1 2214.35 14241.6 548.122 1381.67 136.427 12860 8916.52 880.69 991.509 257.665 1093.45 411.81 681.638 828.107 2449.75 630.651 407.026 3943.45 1744.25 531.632 141.096 1212.62 273.979 391.307 2440.95 1196.73 1244.22 634.953 1050.86 123.595 1019.54 500.985 511.358 62.3492 145.866 78.7468 72.0632 73.8024 705.494 65.5359 137.831 31.3197 639.958 609.264 132.92 733.844 50.9872 476.344
internal_count=268644 239094 17080 222014 192255 29759 178215 165123 22442 13114 9328 14040 29550 25972 13709 21863 2165 4321 331 17542 13287 2057 7317 1147 4109 1286 2823 13092 14915 2758 695 4255 9402 2692 1470 6710 1073 590 3578 2181 1397 1007 1503 462 1366 2264 545 125 678 1345 241 437 5513 236 213 137 5277 390 108 6170 65 282
is_linear=0
shrinkage=0.1


Tree=7
num_leaves=62
num_cat=0
split_feature=31 131 98 133 73 32 52 30 45 38 71 72 30 134 5 55 2 73 73 98 96 73 31 106 41 80 23 99 127 105 121 30 31 114 102 98 30 64 15 99 61 45 99 74 109 107 101 112 124 92 31 5 52 52 60 32 32 31 130 134 29
split_gain=990.877 1684.7 1901.16 1238.11 1331.82 1180.09 1091.53 1082.1 1020.6 741.29 1717.55 1577.21 707.947 751.47 582.475 468.43 457.87 1077.82 493.263 571.946 435.693 874.7 410.648 377.089 394.692 580.496 352.602 275.55 270.141 264.341 234.113 210.917 238.156 204.294 199.783 259.955 218.501 193.115 191.535 187.504 179.801 159.854 144.628 144.142 126.992 114.859 111.168 93.5158 77.5289 169.744 97.5027 68.0557 69.3849 44.4768 29.623 9.19937 67.7463 0.96457 0.562581 0.114192 0.0477568
threshold=1.0064356923103335 1.0000000180025095e-35 -0.99489235877990712 1.0000000180025095e-35 -0.90369504690170277 0.90764576196670543 0.962245672941208 1.046289920806885 1.1961897611618044 0.9129258692264558 -0.44888663291931147 -0.64236032962799061 1.0922462940216067 1.0000000180025095e-35 0.73118126392364513 0.81059387326240551 0.503481686115265 -0.80128300189971913 -0.79971009492874134 -0.89442664384841908 -1.0185726284980772 -0.83203664422035206 0.98518651723861705 -0.85331591963767994 1.0212441086769106 -1.2621003389358518 1.3495501279830935 -0.86112812161445607 -1.5077303647994993 -0.83434301614761341 -1.2512671351432798 0.93139630556106578 0.98899596929550182 -0.95416101813316334 -0.86277687549591053 -0.9098905324935912 1.0673456192016604 0.35560539364814764 0.99014821648597728 -0.98486164212226857 0.62969672679901134 1.0898749828338625 -0.80731436610221852 -0.94534325599670399 -1.0473565459251402 -1.0017241239547727 -1.0766754746437071 -0.93279704451560963 -1.5031333565711973 -1.0265917181968687 1.0038728117942812 0.59584376215934765 1.0602822899818423 1.0774546265602114 0.69502192735672008 0.95764830708503734 0.95782196521759044 0.98193559050560009 1.0000000180025095e-35 1.0000000180025095e-35 1.1264275908470156
decision_type=2 2 2 2 2 2 2 2 2 2 2 2 2 2 2 2 2 2 2 2 2 2 2 2 2 2 2 2 2 2 2 2 2 2 2 2 2 2 2 2 2 2 2 2 2 2 2 2 2 2 2 2 2 2 2 2 2 2 2 2 2
left_child=1 3 26 4 12 15 7 -6 -8 11 -11 -7 13 -1 -14 22 17 34 19 20 28 -22 -5 24 38 -26 37 51 -18 31 -21 46 -33 60 55 36 -36 57 -19 -35 44 -42 43 -25 -29 -17 -4 -37 49 -31 -50 53 -53 -20 -32 58 -57 -3 -2 -44 -28
right_child=16 2 29 5 6 9 8 -9 -10 10 -12 -13 14 -15 -16 45 18 23 27 30 21 -23 -24 42 25 -27 33 40 -30 48 54 32 -34 39 35 47 -38 -39 -40 -41 41 -43 59 -45 -46 -47 -48 -49 50 -51 -52 52 -54 -55 -56 56 -58 -59 -60 -61 -62
leaf_value=-0.023411254552043917 -0.15430096772389015 -0.10337228649523429 -0.108668001973647 -0.081431949576267232 -0.058125466251745965 0.016808280836323079 0.098685616141815313 0.15794340832492493 -0.014068216974715506 -0.1008194039961967 0.080081037716450865 0.16397145966167695 -0.12410295372517062 0.17691629815701904 0.10499763101219602 -0.0076174536278248231 0.19032586787772118 0.16931245974187561 -0.16327535324274706 0.21441178419999307 0.053459372112766745 0.13367130764049104 0.16216983866119902 0.06088197399697122 -0.12639795399399131 0.073270045026587988 -0.11466607793651329 0.19259738078241495 0.12962001578284382 0.25455870652589618 -0.16322062392628298 -0.077866812313241093 0.011572746173493173 0.24066581766686457 -0.090497011547178707 -0.081861005523641603 0.18473664583829391 0.39206590988250289 0.095785075447221535 0.076224116363593081 0.16313077157545722 -0.13957412914477171 -0.13513110515624485 0.17159773025800229 -0.16173207930292827 -0.08998805631902218 0.20621730905729235 0.049131840385427859 -0.1101762228179427 -0.081939720868621446 -0.016289376730760675 0.16348730322908253 0.20103842059880411 0.17566710788031797 -0.066125219531888199 0.20940216169906295 -0.14247329173372292 -0.1302062918838556 -0.13190425558696714 -0.11599859692387704 -0.12575083338871082
leaf_weight=1760.6185453496873 87.714674025774002 24.619918035343289 13.398204019293187 108.71899550408125 244.31149045564234 1193.3298191800714 63751.935877392069 4520.2653176896274 813.01383262127638 695.78131727129221 2136.3226492255926 1868.7099468559027 120.06353513896465 209.53958203271031 1466.0094018056989 222.60374289378524 892.19222314655781 548.01582592725754 9.9928959235548991 23.899870306253433 2353.6136174425483 3218.7175800278783 190.37630614638329 132.30075386911631 168.64427778869867 1065.9153100736439 5.5253132581710842 12.654535025358198 4109.4270817786455 21.927132152020931 81.174889139831066 388.68250443786383 1272.0821949318051 436.79883154481649 39.730107173323631 243.74094918370247 105.26552870869637 8.6066409572958928 1002.169357009232 82.425183176994324 109.77499039471149 20.741834133863449 13.386901184916498 1057.5598888397217 50.401254594326019 706.77999587357044 68.70580031722784 70.19420237839222 452.1540202498436 47.389806967228651 146.43703786283731 1957.2165889441967 657.31588761508465 6.3201101273298255 51.266497433185577 6.2385537177324286 44.501313790678978 29.382559180259705 12.859733790159224 4.0673821046948424 13.105926707386969
leaf_count=13097 401 1023 245 857 1570 4604 151539 7911 13085 4331 7829 4228 569 500 3984 1642 792 532 44 14 6419 5003 324 322 776 3210 57 10 3695 9 397 2574 6405 552 182 1267 160 3 1798 257 40 113 76 1089 245 5944 178 230 4309 304 891 1626 516 4 243 6 231 185 71 38 88
internal_value=0 0.0909605 0.0175317 0.0937241 0.0976129 0.0539305 0.100674 0.146864 0.0972658 0.0725133 0.0356381 0.106619 0.0379278 -0.00210507 0.087655 -0.0352284 0.11675 0.0894972 0.126003 0.116216 0.119023 0.0997918 0.0736223 0.108418 0.0881812 0.0459948 0.176742 0.163185 0.140449 -0.0221236 -0.0736531 -0.00162469 -0.00935953 0.202887 -0.0342776 -0.00142323 0.10932 -0.0478595 0.121778 0.214561 0.0480356 0.115025 0.155095 0.159287 -0.0906224 -0.0702588 0.154833 -0.0525717 -0.0756142 0.0245053 -0.0872081 0.171658 0.172928 -0.0319597 -0.125636 -0.133924 -0.0992096 -0.117973 -0.151437 -0.130673 -0.122464
internal_weight=0 83019.6 3011.24 80008.4 72885.8 7122.62 69329.5 4764.58 64564.9 5894.14 2832.1 3062.04 3556.23 1970.16 1586.07 1228.48 18157 4602.3 13554.7 10730.3 10574 5572.33 299.095 3992.06 2784.74 1234.56 600.464 2824.42 5001.62 2410.78 156.341 1742.87 1660.76 537.855 610.245 458.931 144.996 62.6091 1550.19 519.224 193.573 130.517 1207.31 1189.86 63.0558 929.384 82.104 313.935 667.908 69.3169 598.591 2630.85 2614.53 16.313 132.441 151.314 50.7399 54.0025 100.574 17.4543 18.6312
internal_count=268644 239094 17080 222014 192255 29759 174105 9481 164624 20992 12160 8832 18150 13597 4553 8767 29550 10389 19161 16563 15909 11422 1181 7841 6316 3986 2165 2598 4487 14915 654 9402 8979 954 2548 1839 342 1211 2330 809 408 153 1525 1411 255 7586 423 1497 5513 313 5200 2190 2142 48 640 709 237 1208 472 114 145
is_linear=0
shrinkage=0.1


Tree=8
num_leaves=63
num_cat=0
split_feature=31 131 98 74 133 32 112 77 134 107 83 95 74 108 29 4 73 108 73 96 98 74 31 77 41 122 99 37 55 68 98 114 135 100 8 101 115 56 127 127 120 109 136 110 34 30 72 127 51 97 43 127 9 29 28 1 73 0 90 41 101 106
split_gain=881.507 1302.53 1475.09 1085.59 1049.79 941.373 908.72 1406.01 752.697 684.031 532.961 419.185 503.124 405.561 425.304 389.457 1213.52 373.106 360.79 805.934 392.681 429.576 358.109 304.63 304.866 276.549 465.637 311.391 266.173 250.215 306.066 228.73 216.285 213.156 255.321 197.437 191.177 187.291 181.861 171.863 164.234 143.072 245.445 134.783 114.92 111.708 106.102 146.807 116.509 104.633 115.085 106.492 91.5823 62.397 50.7427 44.14 23.3902 10.9384 2.15672 0.332462 0.0939839 0.0358701
threshold=1.006603002548218 1.0000000180025095e-35 -0.98188468813896168 -1.030420124530792 1.0000000180025095e-35 0.90339186787605297 -0.86735257506370533 -1.3149740695953367 1.0000000180025095e-35 -0.92503157258033741 -1.3261320590972898 -1.061398923397064 -1.0486859083175657 -0.8822711408138274 1.1479020714759829 0.58323895931243908 -0.80050441622734059 -0.88457009196281422 -0.82199236750602711 -1.0185726284980772 -0.91782820224761952 -1.0061483979225156 0.99589678645133983 -1.2184427976608274 1.0565364956855776 -1.1663286089897154 -0.90473604202270497 0.8472910225391389 0.81059387326240551 -0.061138281598687165 -0.9098905324935912 -1.0536882877349851 1.0000000180025095e-35 -0.84800514578819264 0.66144636273384105 -0.87902888655662526 -0.9426470398902892 0.93736529350280773 -1.6558330059051511 -1.4979586005210874 -0.92223289608955372 -0.87650784850120533 1.0000000180025095e-35 -0.96916073560714711 0.92361930012702953 1.0813917517662051 -0.81908673048019398 -1.4979586005210874 1.0682712197303774 -1.0219543576240537 0.9693269431591035 -1.4662628173828123 0.67168503999710094 1.1249731183052065 1.1530120372772219 0.48141534626483923 -0.77779951691627491 0.43702583014965063 -1.1108818054199217 1.01687228679657 -0.97656717896461476 -0.8963770568370818
decision_type=2 2 2 2 2 2 2 2 2 2 2 2 2 2 2 2 2 2 2 2 2 2 2 2 2 2 2 2 2 2 2 2 2 2 2 2 2 2 2 2 2 2 2 2 2 2 2 2 2 2 2 2 2 2 2 2 2 2 2 2 2 2
left_child=1 3 10 8 6 28 7 -5 11 -7 49 12 -1 61 -15 16 29 23 19 32 21 -21 -8 53 -25 26 38 -28 -6 55 35 -22 39 41 56 -31 43 59 -4 -17 -13 42 -20 -12 -39 -38 48 -48 -27 50 -3 -51 -32 -18 -43 57 -35 -2 -36 -19 -34 -10
right_child=15 2 25 4 5 9 22 -9 13 -11 36 40 -14 14 -16 18 17 37 33 20 31 -23 -24 24 -26 46 27 -29 -30 30 52 -33 60 34 58 -37 45 44 -40 -41 -42 54 -44 -45 -46 -47 47 -49 -50 51 -52 -53 -54 -55 -56 -57 -58 -59 -60 -61 -62 -63
leaf_value=-0.05260811838916795 -0.13155298427161033 -0.11435355248989841 0.29131632369592697 -0.098437281156813897 0.037917417729386511 0.067877479313946651 0.090064103488487687 0.086481515079045959 -0.14160208231139426 -0.10143392305711668 0.53375234975332131 -0.09605620679617255 0.10748419891224725 -0.083133095871374074 0.26071678211017313 0.16242802016723065 -0.1539703593724964 -0.16856956259046993 0.14644675613999847 -0.039291737601321028 0.16293824708443119 0.086796832193766535 0.17470555578788555 0.10021606738475319 -0.020050690493898689 -0.11750786549043302 0.29531348412401376 -0.024985904065387161 -0.081119142387840779 -0.14258377391234361 -0.019676981746968601 -0.092616418833753184 -0.15846106965518558 0.029435506606150942 -0.19114266234125363 0.09292414366626936 0.23818105224009878 0.17490174650054494 0.030365907329772797 0.11840410932458792 0.037065106157884074 0.081068781494618825 0.065889863870179949 -0.12735977703512458 0.09656558061032805 0.15004898854926477 -0.037154551379935084 -0.10992261508976078 0.18642936485891828 0.37181826481891767 0.087370677175160297 -0.12649319604729917 -0.12117207054317923 0.17764347376644574 0.20486494101258532 0.11122790519390276 0.15584185467696021 -0.061543148686276021 -0.14890281535314762 -0.14190787865534898 -0.17147918984508481 -0.13089153886088298
leaf_weight=388.04659136757255 172.53688853979111 35.653090203180909 75.536496963351965 413.57701756060123 263.35652589797974 6132.7763431295753 722.07944194041193 70806.313326125965 3.395611345767974 248.27812045067549 3.4453833103179923 631.31887874752283 397.28740182891488 43.533354580402374 207.09540428221226 1164.7334866076708 60.629621863365173 10.874787211418154 2960.4171978160739 302.93049265444279 41.39091332256794 2500.9459699690342 1624.2577915489674 3283.1804952919483 225.23427467420697 19.754082718864083 31.484424479305744 844.19755391217768 655.14942178316414 39.300696037709713 299.97743438184261 227.65285074710846 8.3679018467664736 19.606000162661076 22.851938083767891 377.76772009581327 263.47246106900275 910.57323195040226 41.313961382955313 3715.5570595636964 108.62172356061637 35.879289709031582 433.62332183122635 29.383891290053725 235.75896795094013 316.68601779639721 698.00831178203225 459.92776331491768 34.884485367685556 4.5679080188274375 136.78426772356033 70.134382700547576 126.35045297443867 6.2599675059318534 428.97414550930262 8.4236398190259916 57.776083186268806 25.632363244891167 25.662230461835861 8.2063505202531797 16.443197622895241 39.508289188146591
leaf_count=4265 851 1104 168 2138 1147 21213 1875 176321 17 1288 1 3613 981 206 212 967 292 47 2842 1147 49 5208 2529 6016 1008 199 48 5112 6169 202 1347 1052 36 53 98 896 416 569 196 3256 644 72 789 206 424 449 4163 4150 186 8 409 484 669 4 226 16 31 102 127 41 68 222
internal_value=0 0.0797445 0.0157332 0.0821175 0.083836 0.0476651 0.087425 0.0854077 0.0057146 0.0612898 0.126807 -0.0225063 0.0283799 0.152358 0.200991 0.104226 0.0829375 0.104482 0.11453 0.102257 0.062101 0.0731742 0.148657 0.0884647 0.0924951 -0.0275924 0.0115505 -0.0134698 -0.0469887 -0.0143344 0.00982611 -0.0533007 0.127414 0.139103 0.0110558 0.070732 0.176789 0.153619 0.199054 0.128911 -0.0765143 0.143281 0.136155 -0.057977 0.158791 0.190073 -0.0596321 -0.0660577 0.0765436 0.00283559 0.0456622 -0.0960224 -0.049757 -0.122936 0.19531 -0.112968 0.123815 -0.122498 -0.168799 -0.157103 -0.167089 -0.131739
internal_weight=0 85749.8 3065.23 82684.6 80865.8 7299.56 73566.2 71219.9 1818.81 6381.05 860.127 1525.27 785.334 293.533 250.629 17753.5 5790.71 4740.72 11962.8 7978.02 3072.92 2803.88 2346.34 3575.3 3508.41 2205.11 992.532 875.682 918.506 1049.99 843.396 269.044 4905.1 3984.79 125.896 417.068 612.988 1165.41 116.85 4880.29 739.941 3858.89 3394.04 32.8293 1146.33 580.158 1212.57 1157.94 54.6386 247.14 172.437 74.7023 426.328 66.8896 464.853 206.593 77.3821 198.169 48.5142 19.0811 24.8111 42.9039
internal_count=268644 240139 17299 222840 212680 29817 182863 178459 10160 22501 3077 9503 5246 657 418 28505 12484 8401 16021 11783 7456 6355 4404 7320 7024 14222 5524 5160 7316 4083 3114 1101 4327 4238 309 1098 1072 1081 364 4223 4257 3929 3631 207 993 865 8698 8313 385 2005 1513 492 2016 296 298 969 84 953 225 88 104 239
is_linear=0
shrinkage=0.1


Tree=9
num_leaves=63
num_cat=0
split_feature=31 71 29 40 136 106 134 134 59 85 111 73 134 107 70 91 74 95 31 76 39 107 44 71 52 109 101 35 127 95 125 58 30 34 49 61 31 60 85 2 123 56 40 32 70 54 98 31 38 41 58 77 0 57 66 40 106 70 31 42 35 33
split_gain=816.683 1169.66 1679.41 1162.3 1117.12 1103.8 1669.41 1326.02 943.548 684.952 660.133 699.294 613.475 966.227 970.33 884.791 947.68 1025.83 605.477 578.81 508.042 747.396 495.914 574.669 474.685 456.418 425.203 322.575 281.659 390.847 425.584 280.835 420.069 323.091 263.457 263.808 258.552 434.383 373.01 242.443 230.111 220.419 188.682 180.602 173.964 172.638 788.509 170.869 146.721 125.196 124.415 122.152 120.506 115.515 113.832 105.933 98.4983 94.6618 93.1382 80.4765 47.2527 44.4706
threshold=1.0033069252967837 -0.38307893276214594 1.0789180994033816 1.0480673909187319 1.0000000180025095e-35 -0.87163561582565297 1.0000000180025095e-35 1.0000000180025095e-35 0.84142020344734203 -1.358079671859741 -1.2480248212814329 -0.72755709290504444 1.0000000180025095e-35 -0.87797400355339039 -0.30536331236362452 -1.1860306262969968 -0.93034273386001576 -0.96407297253608693 0.99954518675804149 -1.2298608422279356 0.91803261637687694 -0.87202101945877064 1.1163228750228884 -0.39835982024669642 1.1023207902908327 -1.1386117935180662 -0.78140830993652333 0.93286755681037914 -1.5077303647994993 -1.0707144141197202 -1.2694022059440611 0.82803842425346386 1.0626560449600222 0.91934540867805492 1.1847208738327029 0.73434904217720043 1.0045922398567202 0.7051370143890382 -1.2885589003562925 0.62971082329750072 -1.3176757693290708 0.98159721493721019 1.0360209345817568 0.95695140957832348 -0.17468337714672086 0.96989300847053539 -0.92511123418807972 1.0055275559425356 0.95242810249328624 1.0811477899551394 0.89595377445220958 -1.1337433457374571 0.50573816895484935 0.91818520426750194 0.17065886408090594 1.0487725734710696 -0.94845759868621815 1.0000000180025095e-35 1.011660158634186 1.05109179019928 0.90529847145080578 0.92015171051025402
decision_type=2 2 2 2 2 2 2 2 2 2 2 2 2 2 2 2 2 2 2 2 2 2 2 2 2 2 2 2 2 2 2 2 2 2 2 2 2 2 2 2 2 2 2 2 2 2 2 2 2 2 2 2 2 2 2 2 2 2 2 2 2 2
left_child=1 2 22 25 5 7 -7 -4 44 43 57 -12 15 14 39 28 17 19 -11 -17 51 -22 23 24 -1 48 41 -25 52 58 -31 32 -16 -33 42 -36 37 38 -15 47 -19 -24 -27 -6 55 46 -38 -14 56 -46 -28 -18 53 -2 -54 -5 -3 -10 -30 -39 -47 -50
right_child=12 3 4 8 9 6 -8 -9 10 18 11 -13 13 36 31 16 20 40 -20 -21 21 -23 26 27 -26 34 50 -29 29 30 -32 33 -34 -35 35 -37 45 59 -40 -41 -42 -43 -44 -45 49 60 -48 -49 61 -51 -52 -53 54 -55 -56 -57 -58 -59 -60 -61 -62 -63
leaf_value=-0.086907636333003663 0.17607737455568642 -0.13554323552772624 0.061706463393970949 0.043063440918287156 -0.14943371106047826 0.056574877458060002 -0.016946564143719086 0.13303801168474075 -0.097349292522296862 0.10634004871458112 -0.015848622731761845 0.089946063599143533 -0.13383272922944181 0.25600441677202129 -0.16131281198676906 -0.087134257815122601 -0.087291759424356574 -0.0099913219817501925 0.056753130796774826 0.067639622321289186 0.062896656492329894 0.13470215505588634 -0.08885836650251093 0.12062014631365377 0.071350280929809176 0.12994783522074657 -0.1477773695179771 -0.15375617820526027 0.10336184846095074 0.082728616657229026 -0.12428858008181867 0.1579035198223043 0.13394990645902588 -0.13432834970329843 -0.15938698007537241 0.070387225333446976 0.14189753390343637 0.29847288934300947 0.0041586006323901551 0.27304524317630258 -0.11464889154135492 0.049120011908383644 0.10207408958403733 0.11891407196421196 0.089586677542130747 0.14657800907441051 -0.20492950983969849 -0.019036208595737913 -0.1261170797806663 -0.050344962176189903 -0.068759527620717173 0.15184122440356396 0.14218605294844236 -0.059415883928504915 -0.16517560437459045 -0.091934540101635001 0.21053920736694931 0.12901830954277241 0.14105064804660158 0.14404561140267355 0.10291237741436439 0.13791515083793104
leaf_weight=509.63307467661798 1091.5774074196815 11.585384756326674 22368.372581360862 66.391175612807274 147.8973467964679 11046.469783160836 4286.9790275469422 2949.7377214133739 249.90066266059875 9535.9852256551385 697.51800933480263 5991.9510306734592 230.63785760104656 98.256709337234497 84.750085681676865 246.94171913713217 21.643280193209648 780.97975481301546 3319.639156639576 11221.006931342185 4361.7705391831696 2171.0779109112918 162.26768719777465 570.43634079955518 301.74552666023374 5739.7035672124475 354.57636944390833 46.328709207475185 1286.4165174663067 362.79543767869473 136.73210404068232 675.68297874927521 111.67730724439025 40.076945435255766 55.485161570832133 502.43852772004902 332.22224873304367 294.56550981104374 146.48796661198139 21.532205671072006 287.39606764167547 404.11222841776907 4209.6256263069808 30.201325476169586 138.49968643859029 2641.7167095690966 81.664585508406162 296.14849404245615 113.06732074171305 118.76527925953269 454.90426824241877 1637.7322074174881 28.420432552695274 21.234910532832146 20.918037429451942 466.97610059008002 28.341879203915596 19.947997786104679 1337.3604191914201 38.112077750265598 273.48216216266155 6.7605151385068885
leaf_count=6779 1223 77 70598 182 806 37413 17412 7471 5546 11641 2507 17906 1082 141 429 1166 66 2998 6155 23791 9959 2617 1165 974 1929 6288 2006 210 1697 636 636 898 111 281 330 1831 156 237 570 15 1433 1536 6340 38 232 999 314 877 900 697 2524 1446 33 79 96 2161 31 21 621 74 250 7
internal_value=0 0.068556 0.061421 0.0904409 0.0653615 0.0571935 0.0360195 0.0700171 0.0609681 0.0908373 0.0727289 0.0789147 0.0879941 0.118672 0.0492788 0.0814119 0.0728604 0.0555757 0.0935355 0.0643068 0.0993107 0.08676 -0.0140245 0.0272531 -0.0280527 0.111854 -0.0568707 0.10001 0.122775 0.107137 0.0260633 0.112474 0.00655657 0.141541 0.114405 0.0475363 0.144615 0.206388 0.105266 -0.0558529 -0.0381445 0.00958925 0.118154 -0.103928 -0.0425529 0.133901 0.0734646 -0.0692965 -0.0559017 0.0249878 -0.103372 0.148722 0.164803 0.171584 0.0118739 -0.0751306 0.110119 -0.0806155 0.122572 0.280781 0.142482 -0.111221
internal_weight=0 74906.2 56489.3 18417 53685.3 40651.6 15333.4 25318.1 7749.95 13033.7 6959.32 6689.47 30381 5367.01 1460.51 25014 20728.5 12536.3 12855.6 11467.9 8192.22 6532.85 2804 1428.14 811.379 10667 1375.86 616.765 4285.46 3123.3 499.528 912.187 196.427 715.76 10507.3 557.924 3906.51 577.422 244.745 548.319 1068.38 566.38 9949.33 178.099 790.632 3329.09 413.887 526.786 159.755 257.265 809.481 1659.38 1162.15 1112.81 49.3385 533.367 39.9273 269.849 2623.78 332.678 2915.2 119.828
internal_count=268644 213713 168657 45056 151534 132894 54825 78069 29252 18640 25980 20413 54931 6434 3693 48497 43476 29388 17796 24957 14088 12576 17123 9892 8708 15804 7231 1184 5021 3590 1272 1719 540 1179 14789 2161 2741 1022 711 1974 4431 2701 12628 844 3272 1719 470 1959 1015 929 4530 1512 1431 1302 129 2343 108 5567 2318 311 1249 907
is_linear=0
shrinkage=0.1


Tree=10
num_leaves=59
num_cat=0
split_feature=31 71 37 41 1 59 35 73 131 102 61 108 102 40 62 73 134 93 74 96 71 72 128 30 98 73 55 135 68 3 126 55 98 108 75 117 105 47 61 127 95 72 95 74 88 102 34 73 58 95 74 90 107 132 39 86 38 37
split_gain=756.908 948.326 1742.35 1082.86 998.389 1003.19 1971.21 671.926 506.226 499.729 512.239 470.805 655.183 438.35 1248.45 788.813 421.98 558.718 477.185 745.386 421.121 419.4 362.047 341.598 325.984 509.288 268.723 261.737 250.209 232.796 223.204 182.663 510.719 171.123 146.398 131.263 133.502 111.251 110.034 87.3843 323.301 179.689 117.011 41.76 150.643 35.3365 54.8903 29.0312 90.4171 23.6029 20.8383 15.6813 5.02071 4.96755 1.36113 1.21526 0.489761 0.019334
threshold=1.0064356923103335 -0.38615383207797999 0.95895898342132579 1.0842260718345644 0.22277129441499713 0.81126758456230175 0.91071608662605297 -0.71287027001380909 1.0000000180025095e-35 -0.76968657970428456 0.69807878136634838 -1.0564544200897215 -0.7848636507987975 1.0360209345817568 0.64717859029769909 -0.75613081455230702 1.0000000180025095e-35 -1.1193769574165342 -0.94534325599670399 -0.96712681651115406 -0.33828711509704584 -0.65353202819824208 1.0000000180025095e-35 1.0378100275993349 -0.87925490736961354 -0.76843398809432972 0.93699017167091381 1.0000000180025095e-35 0.088999856263399138 0.50376078486442577 -1.566275358200073 0.93496814370155346 -0.91872569918632496 -0.88273197412490834 -1.0402615666389463 -1.3172028064727781 -0.84529611468315113 1.1371447443962099 0.74923938512802135 -1.4930011034011839 -1.0671705007553098 -0.68591681122779835 -1.0791214704513548 -0.90956732630729664 -1.1429585814476011 -0.76445981860160817 0.92985522747039806 -0.8711862564086913 0.82413223385810863 -1.0131878256797788 -1.002506375312805 -1.0865346193313596 -0.88201576471328724 1.0000000180025095e-35 1.0185146331787112 -1.1805481910705564 0.95662093162536632 0.95488744974136364
decision_type=2 2 2 2 2 2 2 2 2 2 2 2 2 2 2 2 2 2 2 2 2 2 2 2 2 2 2 2 2 2 2 2 2 2 2 2 2 2 2 2 2 2 2 2 2 2 2 2 2 2 2 2 2 2 2 2 2 2
left_child=1 2 4 13 35 6 -6 28 -7 10 34 12 -9 26 23 -16 17 39 19 21 -13 -19 -12 -15 33 -26 53 -28 -5 55 -21 32 49 -20 -4 37 -37 -1 -30 47 42 -42 -41 44 -33 46 -11 48 -2 -31 -49 -45 -34 -3 -47 -18 -57 -58
right_child=16 3 9 7 5 8 -8 11 -10 45 22 20 -14 14 15 -17 29 18 24 30 -22 -23 -24 -25 25 -27 27 -29 38 31 -32 43 52 -35 -36 36 -38 -39 -40 40 41 -43 -44 51 -46 54 -48 50 -50 -51 -52 -53 -54 -55 -56 56 57 -59
leaf_value=-0.010389857463406611 0.13642743674238286 -0.12105100406769652 -0.099807718271687773 0.18720609514238118 0.061114580018259514 0.095235872869372018 -0.023352419614617356 0.13036229310427216 -0.091225313144789308 -0.020032842736595682 0.0047235735416459104 0.0026601086918016398 -0.12202364541972924 -0.05779125588116666 -0.11610556244460411 0.099400329643329177 -0.17471029400645657 0.048549308574706906 0.095247237342734326 7.5979037617336111e-05 0.082433643547528357 0.1149896876944828 0.091273723487626357 0.052983588391705784 -0.02603985971514218 0.084499090125662646 0.11668702459552699 -0.13602813135288175 -0.14334260538474319 0.15041505424290491 -0.10988618163014385 0.13797212644528273 -0.15111229745395435 0.14792701775946077 -0.023077362167940846 0.031582832246905293 -0.10036870820034392 -0.13419134199999999 -0.03459564638707379 0.12274514718705035 -0.13358506687769231 0.099051737191009542 0.075567741668641011 0.1583020422619616 -0.060288806822830658 -0.1411289864252401 -0.13676999119749444 0.16629701672397626 -0.035570353759700295 0.075000345935388568 0.12056240127165996 0.224708907717976 -0.20520346167463069 -0.19657377259087763 -0.12642987181640644 -0.14955977407305895 -0.11775810054885948 -0.11229881401932668
leaf_weight=100.37174669280648 246.60331796109676 26.959157342091203 428.28498459234834 32.243521101772785 51497.765275721438 9077.3181992899626 2919.4851526878774 150.14888604357839 147.97553859464824 89.025254465639591 1689.7064289450645 872.03017920255661 326.56075850501657 738.38224339857697 173.87304797023535 7333.5213162731379 4.8265988156199446 3502.0307458266616 2991.9965846017003 1078.5205821916461 2744.1609076205641 1303.8071887642145 676.94211847893894 446.83887448906898 545.62268536165357 1765.4268497601151 6522.868326285854 41.2419637683779 247.5176103785634 152.37375670671463 222.71153032779694 1888.0576713904738 30.031872428953648 776.69260061532259 592.8726669382304 224.4818512648344 116.45240657776594 262.20202667079866 149.08846152573824 2176.7867143899202 86.338539108633995 53.947923973202705 693.12361063808203 74.390067487955093 39.118491150438786 98.323847517371178 73.561192691326141 397.69418583065271 34.887511573731899 57.034508928656578 132.92452064156532 68.123255431652069 40.035717591643333 12.865745447576044 175.3345246873796 4.9837708324193981 14.883737012743952 11.498901169747112
leaf_count=634 103 381 2460 33 138721 18831 11590 173 1020 356 6083 3035 5485 2854 891 11492 26 7789 4552 3873 12423 1695 2005 976 1979 3147 7579 252 1258 58 1011 819 146 506 2583 1158 2002 1985 639 1343 350 75 834 19 147 523 426 279 89 92 129 50 164 64 1182 24 124 127
internal_value=0 0.0621429 0.0565453 0.0813973 0.0604427 0.0617523 0.0565829 0.0384044 0.092245 -0.00903436 0.00393777 0.0508824 -0.0425298 0.0941063 0.0793512 0.0944092 0.0844479 0.0786014 0.068139 0.0483955 0.0631966 0.0665744 0.0294799 -0.0160282 0.0879713 0.0584016 0.113528 0.115099 -0.0806843 0.123686 -0.0187445 0.127564 0.0516798 0.106104 -0.0552589 -0.0580327 -0.0134877 -0.0999192 -0.102463 0.111959 0.104105 -0.0441233 0.111351 0.13781 0.133948 -0.109774 -0.0728498 0.141069 0.11511 0.129875 0.15484 0.190045 -0.182019 -0.145449 -0.131711 -0.127998 -0.12081 -0.115379
internal_weight=0 87988.4 68170.1 19818.3 64346.1 63642.5 54417.3 4521.75 9225.29 3824.05 3387.81 4092.9 476.71 15296.6 8692.62 7507.39 18394.5 16009.1 12186.8 6107.07 3616.19 4805.84 2366.65 1185.22 6079.74 2311.05 6603.94 6564.11 428.85 2385.36 1301.23 2349.17 279.476 3768.69 1021.16 703.508 340.934 362.574 396.606 3822.31 3010.2 140.286 2869.91 2069.69 1927.18 436.245 162.586 812.11 281.491 209.408 530.619 142.513 70.0676 39.8249 273.658 36.193 31.3664 26.3826
internal_count=268644 239094 191559 47535 175941 170162 150311 23046 19851 15618 13131 21116 5658 24489 16213 12383 29550 27754 24552 14368 15458 9484 8088 3830 10184 5126 8276 7831 1930 1796 4884 1495 460 5058 5043 5779 3160 2619 1897 3202 2602 425 2177 1035 966 2487 782 600 192 150 408 69 310 445 1705 301 275 251
is_linear=0
shrinkage=0.1


Tree=11
num_leaves=63
num_cat=0
split_feature=31 72 30 95 44 70 132 136 106 75 106 134 92 74 97 107 70 36 107 107 103 126 82 71 46 3 5 39 54 28 52 73 94 125 75 46 127 127 59 30 37 30 130 54 98 37 27 31 71 106 70 51 114 30 100 106 59 39 35 37 31 107
split_gain=710.246 911.234 1504.75 1158.63 998.97 847.666 737.564 997.244 950.713 813.861 579.381 574.76 664.803 888.225 628.826 595.156 695.919 553.399 681.456 515.914 504.702 515.196 478.711 437.238 665.34 386.74 367.544 367.291 425.989 362.285 316.531 287.592 385.143 393.44 284.99 284.578 255.42 243.071 207.174 399.008 242.685 206.674 190.575 178.684 658.322 164.999 164.75 162.108 158.663 148.187 143.754 139.82 124.063 111.349 110.635 97.8718 59.8557 42.4276 41.6152 35.4659 26.5051 7.22176
threshold=1.0038728117942812 -0.55533942580223072 1.0349281430244448 -0.94038438796997059 1.1553891301155093 -0.16513837873935697 1.0000000180025095e-35 1.0000000180025095e-35 -0.80124741792678822 -1.0455444455146787 -0.9697231352329253 1.0000000180025095e-35 -1.1341024637222288 -0.95713740587234486 -0.94972464442253102 -0.87719854712486256 -0.30536331236362452 0.85591024160385143 -0.86898043751716603 -1.0103578567504881 -0.66931721568107594 -1.9456393122673032 -1.393271744251251 -0.34521193802356714 1.1496819853782656 0.67304065823555004 0.61540737748146068 0.9755205810070039 1.0843922495841982 1.1123297214508059 1.1137034893035891 -0.82376179099082936 -1.0829491615295408 -1.3341149091720579 -1.0949632525444029 1.1427130103111269 -1.6445397734642027 -1.5077303647994993 0.77251863479614269 1.0624086260795595 0.94239938259124767 1.0646265745162966 1.0000000180025095e-35 0.96989300847053539 -0.92511123418807972 0.99630093574523937 1.4638392925262453 1.0045922398567202 -0.38307893276214594 -0.92995262145996083 -0.31892281770706171 1.0520876049995425 -1.4078325629234312 1.0578243732452395 -0.75133141875267018 -0.91701713204383839 0.77177909016609203 0.89859983325004589 0.90529847145080578 0.94359391927719127 1.0079180598258974 -0.88201576471328724
decision_type=2 2 2 2 2 2 2 2 2 2 2 2 2 2 2 2 2 2 2 2 2 2 2 2 2 2 2 2 2 2 2 2 2 2 2 2 2 2 2 2 2 2 2 2 2 2 2 2 2 2 2 2 2 2 2 2 2 2 2 2 2 2
left_child=1 2 3 25 19 29 7 8 -4 53 -11 12 31 14 36 16 41 55 -19 27 21 -7 -9 24 -21 34 -16 48 -29 49 54 32 37 -34 -1 -32 -14 -2 39 -18 -40 61 -31 44 57 -25 -27 56 -3 -6 -43 -33 -22 -8 -5 -15 -45 -17 -49 -53 -46 -13
right_child=11 4 6 30 5 20 9 22 -10 10 -12 15 13 17 26 43 38 18 -20 23 52 -23 -24 45 -26 46 -28 28 -30 42 35 51 33 -35 -36 -37 -38 -39 40 -41 -42 50 -44 47 60 -47 -48 58 -50 -51 -52 59 -54 -55 -56 -57 -58 -59 -60 -61 -62 -63
leaf_value=0.011856282518454249 0.1425869505858865 0.034073079291948354 0.036802461233425669 -0.1137746020518443 -0.1506213200763856 0.083000212436584855 -0.020339083923026163 -0.13948164756900364 0.10022998581972933 -0.14135778946459565 0.11265531146023085 -0.1428175521275121 0.10603377396550305 0.12885376732334414 0.010955884895542462 0.21809474444404173 -0.14896833572343715 0.042317060848645269 0.097674254826964305 0.1024642471208433 0.015694394579281953 -0.051147408576867406 0.074744174984666442 0.11557244867064086 0.046555274333975168 -0.118045136917489 -0.077883588124467773 -0.10236372173321531 0.12200861760288453 0.093109820687765799 0.11029054190898985 -0.19240445645321549 0.087387736925889359 -0.048096140392976577 0.084625955450091564 -0.041083955095885014 0.03514045573458336 0.084962022717173125 0.15484431135145468 0.11800362982820567 -0.027427063022970762 -0.048435171511889391 -0.10284036474636951 0.14286686824559724 -0.19715998864444814 -0.056974620264153619 0.16549446856351635 0.13140978680797077 0.1615156764512235 -0.045976150437367226 0.079617931153667998 0.1560921816646953 -0.10957013610961658 -0.19272515949831154 -0.024008644878354902 0.031493780583845957 0.23316592202859709 0.11592067354599114 0.087560841761793268 0.079634160225064865 -0.052856985040664134 -0.19637213359957661
leaf_weight=928.9650866985321 897.11953134834766 274.76144570484757 35029.185494050384 852.24901839718223 160.23656577244401 3093.4448245745152 61.087049171328545 105.14866095781326 2534.1233175173402 92.229001238942146 3402.3819055333734 78.276735633611679 620.65683031827211 1653.8416161984205 1223.4289048314095 46.935284674167633 86.19520278275013 6286.9690183773637 3440.8278845436871 4649.9564057029784 132.3235086183995 315.48767194151878 13091.341743215919 5109.2008692398667 3925.3952939212322 189.18985748849809 751.89604572206736 355.79099845141172 111.02171654999256 273.60643401741982 139.7539985217154 12.061996191740034 450.74798781424761 408.67210761457682 1279.3534855376929 1115.3590838573873 2805.1079426556826 3977.1281206309795 579.89532672613859 159.71345482766628 83.57536032423377 281.00928328931332 60.632416464388371 111.68945522606373 75.318448156118393 56.027755603194237 22.982067674398422 2382.2727203816175 151.58406449854374 870.36790016666055 127.41897855699062 813.49251572787762 196.4416177123785 96.917400613427162 163.66683129966259 110.12697649002075 214.16843366622925 303.06623287498951 238.06706829369068 65.55799674987793 15.317046444863079 37.120300352573395
leaf_count=3425 817 971 116691 4421 1140 10391 148 388 4525 383 3300 413 1104 1508 4015 10 422 14789 4900 6863 2161 1118 18403 5004 9013 4614 3151 2262 97 724 820 49 1000 1328 3884 5898 6255 4558 448 141 472 916 297 244 317 176 94 954 173 3810 229 528 5011 440 2291 253 139 198 229 111 42 168
internal_value=0 0.0540397 0.0478272 -0.00651228 0.0726441 0.0345439 0.0525124 0.0493893 0.0410815 0.0959144 0.105951 0.0724984 0.0660509 0.055522 0.0220746 0.103957 0.0499392 0.0712422 0.0618975 0.0859291 0.0591735 0.0705852 0.0730372 0.0907162 0.0768717 0.0416242 -0.0228603 0.012283 -0.0490014 -0.0329058 -0.0578168 0.0928991 0.0846852 0.0229623 0.0540142 -0.0242287 0.0479844 0.0955681 0.102826 0.0244254 0.131884 -0.0418738 0.0575636 0.126815 0.0674219 0.113701 -0.0873327 0.135698 0.0793844 -0.0622462 -0.00848594 0.14575 -0.0591529 -0.126078 -0.0993131 0.122775 0.202215 0.129622 0.127426 0.15039 -0.172773 -0.160045
internal_weight=0 78840.2 59103.9 4691.52 19736.3 5102.54 54412.4 50759.8 37563.3 3652.62 3494.61 28337.7 23517.6 16892.9 5401.09 4820.04 1433.2 11491.8 9727.8 14633.7 3737.7 3408.93 13196.5 13740.6 8575.35 2420.49 1975.32 893.158 466.813 1364.84 2271.03 6624.78 5733.67 859.42 2208.32 1255.11 3425.76 4874.25 909.379 245.909 663.471 523.825 334.239 3386.83 440.637 5165.23 212.172 2946.2 426.346 1030.6 408.428 891.113 328.765 158.004 1015.92 1763.97 325.858 350.002 2620.34 879.051 90.6355 115.397
internal_count=268644 218936 169725 25447 49211 24652 144278 140007 121216 4271 3683 49708 44366 35975 14525 5342 3209 21450 19689 24559 18681 11509 18791 21056 15876 12017 7166 3503 2359 5971 13430 8391 7703 2328 7309 6718 7359 5375 1483 563 920 1726 1021 2133 567 5180 4708 1566 1144 4950 1145 688 7172 588 6712 1761 383 208 1183 639 359 581
is_linear=0
shrinkage=0.1


Tree=12
num_leaves=59
num_cat=0
split_feature=31 73 99 94 75 56 124 50 33 114 74 116 74 115 35 103 98 30 73 136 94 5 73 101 124 0 98 129 37 73 102 71 100 16 126 130 22 29 29 73 0 105 108 83 0 108 6 106 28 98 2 99 116 41 130 35 131 96
split_gain=659.309 631.176 1851.33 1074.19 878.988 984.584 802.399 760.393 854.028 688.341 791.632 1070.65 614.11 619.917 608.472 527.418 418.513 396.626 394.976 386.035 288.451 256.388 333.656 207.685 197.985 145.959 146.433 144.959 144.466 403.276 154.303 125.521 207.896 157.819 156.75 113.514 123.356 177.499 111.037 92.4629 68.2434 65.1728 64.3212 268.893 103.724 63.9466 50.7668 49.3506 2.63556 1.66888 1.59991 0.818628 0.323379 0.20565 0.148313 0.036349 0.0323775 0.0382392
threshold=1.0128318667411806 -0.81478580832481373 -0.88529232144355763 -1.0458282828330991 -1.0859274864196775 0.91414040327072155 -1.316409647464752 0.9906892478466035 0.84444865584373485 -1.016712963581085 -0.98191601037979115 -0.96002745628356922 -0.94534325599670399 -1.067797780036926 0.89810600876808178 -0.84023350477218617 -0.90407681465148915 1.0430985093116762 -0.82199236750602711 1.0000000180025095e-35 -1.0406064987182615 0.61239206790924083 -0.83012253046035755 -0.8931160271167754 -1.2965708971023557 0.48015396296978002 -0.93051365017890919 1.0000000180025095e-35 0.94776269793510448 -0.80201762914657582 -0.81314164400100697 -0.43959890305995936 -0.83949396014213551 0.97496646642684948 -1.6270264983177183 1.0000000180025095e-35 1.4282330274581911 1.1394402384757998 1.2115557193756106 -0.81738746166229237 0.63702312111854564 -0.89415618777275074 -0.90523919463157643 -1.245622396469116 0.4504771232604981 -1.0018343329429624 0.65349170565605175 -0.8574841022491454 1.1922095417976382 -0.86699402332305897 0.55942690372467052 -0.89556354284286488 -0.90230864286422718 1.0187178850173952 1.0000000180025095e-35 0.92443299293518078 1.0000000180025095e-35 -1.0319174528121946
decision_type=2 2 2 2 2 2 2 2 2 2 2 2 2 2 2 2 2 2 2 2 2 2 2 2 2 2 2 2 2 2 2 2 2 2 2 2 2 2 2 2 2 2 2 2 2 2 2 2 2 2 2 2 2 2 2 2 2 2
left_child=1 2 9 25 16 27 7 17 -9 12 11 -11 19 -14 -12 -7 18 -5 -4 -1 24 22 52 -22 -8 28 46 -6 30 -30 -3 32 34 49 -24 38 37 47 42 -18 50 -39 43 -23 -44 -35 -27 -37 -34 -33 -40 -28 53 54 -2 -55 -54 -58
right_child=21 3 4 6 5 15 20 8 -10 10 14 -13 13 -15 -16 -17 39 -19 -20 -21 23 35 31 -25 -26 26 51 -29 29 -31 -32 33 48 45 -36 36 -38 41 40 -41 -42 -43 44 -45 -46 -47 -48 -49 -50 -51 -52 -53 56 55 -56 -57 57 -59
leaf_value=-0.077891659812842851 -0.147810355570313 0.12057885560524853 -0.081462683807692296 -0.13254162423969532 -0.10779172943734511 0.12902241131580666 0.062240918239639523 -0.034489609304058248 0.055210450779055155 -0.0065867321520270278 0.083537456969563162 0.052436692347049965 -0.03704302672441042 0.08912542818812115 -0.084336678422964551 -0.0025406657958487915 -0.13158603253128789 0.12830693580759456 0.087983064858428509 0.11724979529108304 0.065203566146177214 -0.090151014034849486 0.072683812741278095 -0.15126202616362269 -0.13310759407043513 -0.084133388168745049 -0.19539941998775651 0.10763476738869063 -0.12244877142745497 0.11996286284147591 0.18238762716198959 -0.22682184950680792 -0.13424498767717694 -0.046333597659357434 -0.10876788050255448 -0.021874445145997987 0.20699576963578595 0.059288124670273425 -0.15662209833272533 -0.046037112679029026 0.21135729449826179 -0.1474612469777398 0.21921798476940957 0.10207524144843186 0.11370637397066019 0.14268059984651391 0.086884614553058834 0.18330220237129857 -0.18034137754439708 -0.14821405231473783 -0.21588807821575517 -0.15455977482587868 -0.13652862103614713 -0.13353803831609701 -0.13439528304844245 -0.11898169818810234 -0.12031815043282457 -0.13153790714402938
leaf_weight=988.22323462180793 54.857172735035419 1349.0697726681828 344.1226542647928 60.311539005488157 498.85483258217573 663.09492085874081 221.35096061229706 1080.2397120054811 60920.224680420011 3712.3005796559155 7880.6376579031348 17852.932129205205 647.36693374067545 977.40239200741053 221.99217806383967 563.78404236584902 914.39335641823709 1740.2578578218818 229.18299214541912 112.9622053951025 52.154364319518209 77.832263499498367 477.76726793497801 295.16711035370827 67.764661118388176 19.052835553884506 18.213690221309665 33.321715693920851 83.196388974785805 391.88957164809108 576.49920143187046 3.2297485321760204 35.542822454124689 19.097183540463448 52.877794347703457 16.499909117817879 30.572820708155632 19.531144246459007 15.335050523281103 146.59377682954073 5.8133374005556098 69.505312904715538 97.535533219575882 1118.9266196414828 2081.7570851147175 285.27962440624833 195.11705167219043 40.491796568036079 19.051822271198034 16.491247728466988 6.4795883595943442 6.7187766581773749 3.5796546638011906 4.6350194215774527 9.6981910318136197 2.7234969064593315 6.3216939345002165 5.8474908918142328
leaf_count=4887 262 1301 1588 306 2368 1416 401 11012 144809 11947 14404 47970 2563 1598 984 2022 4941 2025 453 182 137 251 958 2483 290 57 77 70 383 463 329 15 227 61 240 54 23 45 70 598 2 334 84 1383 1510 346 264 26 83 83 27 31 19 26 53 22 47 34
internal_value=0 0.0512332 0.040509 0.0569548 -0.0297651 0.0192921 0.0543935 0.055508 0.0536476 0.0478704 0.052289 0.0422762 -0.000219584 0.0388553 0.0789381 0.0685656 -0.0825673 0.11957 -0.0137255 -0.0578736 -0.0573345 0.090021 0.0451716 -0.118757 0.016454 0.119478 0.0449694 -0.094303 0.126899 0.0775121 0.139084 0.0631333 0.0354851 0.113059 0.0546025 0.10251 0.0243395 -0.0139019 0.106566 -0.119766 -0.0930934 -0.102108 0.1082 0.0895736 0.118429 0.130821 0.0716706 0.123901 -0.150331 -0.161088 -0.174226 -0.184394 -0.141147 -0.14399 -0.145795 -0.128151 -0.128169 -0.125709
internal_weight=0 102864 35787.2 67077.2 3393.35 1759.06 64437.5 63801 62000.5 32393.8 29667.9 21565.2 2725.95 1624.77 8102.63 1226.88 1634.29 1800.57 573.306 1101.19 636.437 4577.28 997 347.321 289.116 2639.76 239.102 532.177 2400.65 475.086 1925.57 909.338 585.24 324.098 530.645 3580.28 176.601 146.028 3403.68 1060.99 27.628 89.0365 3376.05 1196.76 2179.29 304.377 214.17 56.9917 54.5946 19.721 21.8146 24.9325 87.6627 71.9139 64.5554 7.35852 15.7488 12.1692
internal_count=268644 262359 97991 164368 13456 5876 161463 158152 155821 84535 75305 59917 9230 4161 15388 3438 7580 2331 2041 5069 3311 6285 2476 2620 691 2905 429 2438 2476 846 1630 2013 1508 505 1198 3809 482 459 3327 5539 99 379 3228 1634 1594 407 321 80 310 98 97 108 463 363 315 48 100 81
is_linear=0
shrinkage=0.1


Tree=13
num_leaves=62
num_cat=0
split_feature=31 131 99 124 133 31 75 48 72 75 134 96 74 106 75 103 112 110 79 101 48 72 98 135 97 31 1 123 34 104 0 31 127 75 30 3 96 55 98 85 40 75 93 116 93 6 95 56 3 51 106 31 38 131 107 114 31 29 37 106 31
split_gain=613.007 800.049 1059.12 776.062 815.56 715.598 718.337 659.025 735.051 560.696 409.92 503.411 657.667 435.926 483.179 319.2 273.635 212.689 209.902 208.872 206.838 190.336 182.66 170.697 169.822 165.192 154.593 149.508 146.984 136.03 119.154 112.71 142.775 111.637 101.837 89.9675 79.4342 77.0512 313.68 72.1693 53.1512 73.6437 51.8531 41.4745 32.8751 31.8471 26.2006 288.063 16.3932 9.83513 7.62299 3.11718 2.08805 1.09915 0.848493 0.82422 0.598071 0.321274 0.27941 0.0587345 0.0137079
threshold=1.006603002548218 1.0000000180025095e-35 -0.98486164212226857 -1.1043578982353208 1.0000000180025095e-35 0.99545609951019298 -0.90218889713287342 1.2058514952659609 -0.54513642191886891 -0.93831723928451527 1.0000000180025095e-35 -1.0185726284980772 -0.98857682943344105 -0.84831878542900074 -1.0241771936416624 -0.78896889090538014 -0.93217399716377247 -0.94568648934364308 -1.2670211791992185 -0.93947863578796376 1.1003220677375796 -0.65988141298294056 -0.97639590501785267 1.0000000180025095e-35 -1.0027265548706052 0.99844282865524303 0.65910765528678905 -1.1844973564147947 0.92361930012702953 -0.82141005992889393 0.63702312111854564 1.011660158634186 -1.4930011034011839 -0.99986252188682545 1.0853802561759951 0.57731834053993236 -1.0406134724617002 0.93496814370155346 -0.91872569918632496 -1.099632143974304 0.78548583388328563 -1.1202535033226011 -1.0849061012268064 -0.93871366977691639 -1.0141417384147642 0.71201631426811229 -0.97325405478477467 0.91014066338539135 0.62786293029785167 1.0729039311408999 -0.86240753531455983 0.94172418117523204 0.95609742403030407 1.0000000180025095e-35 -0.88201576471328724 -0.95337110757827748 1.0045922398567202 1.1680453419685366 0.93780118227005016 -0.89514863491058339 1.0083688497543337
decision_type=2 2 2 2 2 2 2 2 2 2 2 2 2 2 2 2 2 2 2 2 2 2 2 2 2 2 2 2 2 2 2 2 2 2 2 2 2 2 2 2 2 2 2 2 2 2 2 2 2 2 2 2 2 2 2 2 2 2 2 2 2
left_child=1 3 16 4 7 6 -6 8 -1 -7 11 23 20 14 -14 -9 40 33 25 22 21 -13 30 31 43 36 45 -26 -15 -27 -5 32 -2 44 -24 -33 -4 38 48 49 41 -3 -28 -20 -12 -18 50 -48 -19 -35 -39 57 -46 -22 -40 -42 -53 -21 -41 60 -25
right_child=10 2 18 19 5 9 -8 15 -10 -11 17 12 13 28 -16 -17 26 37 24 51 53 -23 34 59 27 29 42 -29 -30 -31 -32 35 -34 39 -36 -37 -38 46 54 58 55 -43 -44 -45 52 -47 47 -49 -50 -51 -52 56 -54 -55 -56 -57 -58 -59 -60 -61 -62
leaf_value=0.046570928216700419 0.11084961343824079 0.24568097468910621 0.0034030061841813018 -0.11754543943678826 -0.07297469016614265 0.0010773658652268538 0.015040876352323285 0.084703066031568672 0.071617434033428892 0.091855874583174776 0.067371948842611995 -0.024237856083324117 0.023219102974685414 0.11291355518360127 0.073303177342679868 -0.047061638839828057 0.037987836371518958 0.068062479314945773 0.0052694099823718289 -0.10285466552406053 -0.15096800933625204 0.12253416843217294 0.015041875793051019 -0.17502105946341942 0.011064620423423958 -0.013732684046033297 -0.12997542528921677 -0.099075272654815222 0.040938816139975062 -0.097504303874513115 -0.019537334980583063 -0.00010091430520878567 0.052158403105981604 0.090872576915052752 0.14745963468591836 0.10507454247891389 -0.11347398990301215 0.11049017501007848 -0.146190496269135 -0.15276342131829676 -0.12092740199631823 -0.11617211105418355 0.20310075689492668 0.19374225384575275 -0.15790671877521437 0.15809811066693014 -0.22252997482213016 0.11988460495127783 0.13762939192232723 0.19317812198190643 0.13631759395967924 -0.13378173006338845 -0.1166096649542373 -0.13258623017954044 -0.1774726511661722 -0.15661182565443343 -0.16996705602704207 -0.1149163020644508 -0.11304363876637075 -0.18221989860309601 -0.16892020902144667
leaf_weight=62290.391337836161 595.16875658929348 10.893319129943849 66.429912596009672 163.376603635028 1205.5576563179493 1107.1458219587803 4017.1128239631653 225.45618254877627 14431.91718964465 1765.1938052996993 8.5384966358542425 889.83876678347588 4379.6060641221702 1496.5277807712555 3438.5899608507752 996.26004724577069 23.132920533418655 45.221051603555679 14.754499301314352 31.676286824047565 74.122197419404984 98.096209488809109 210.13985950499773 4.8881971687078538 778.27544854953885 908.64428219199181 26.918813521042466 146.43571198359132 350.11118029803038 246.40298463776708 515.28547975607216 84.032016232609749 1365.2809894010425 15.867596395313738 80.260335974395275 2530.4640202969313 466.53476802259684 132.19783538579941 11.466758534312246 2.108851507306098 41.854771446436644 11.627974461764095 5.6560611724853507 55.953884668648243 35.63159966468811 482.92877438571304 25.488861508667469 680.60539997369051 134.98777528107166 23.042930647730827 843.05593046545982 105.83603822439909 18.652704492211342 57.972215957939625 35.559192806482315 7.6568031869828692 4.7736088186502448 72.918910395354033 11.055907256901262 5.36364422738552 14.936594754457472
leaf_count=145296 578 2 293 938 5925 3484 16822 641 24782 3568 14 2763 11224 1586 5231 13234 72 53 49 1269 361 104 1544 20 3559 4110 1049 1996 701 1771 3736 247 1855 29 262 1737 3280 101 55 10 409 148 1 59 163 463 114 378 68 16 208 640 168 361 150 38 21 678 126 22 62
internal_value=0 0.0440507 -0.00432642 0.0458777 0.0469844 0.0167735 -0.0052759 0.050122 0.0512823 0.0568652 0.064541 0.058976 0.0471622 0.0555686 0.045247 -0.0227457 0.114536 0.106854 -0.031376 -0.0345221 -0.0253779 -0.00966425 -0.0147312 0.0866731 0.00504465 -0.0528533 0.139016 -0.00637695 0.0992676 -0.0316034 -0.0431312 0.0881025 0.0699763 -0.0252827 0.0516393 0.101694 -0.0989062 0.114808 0.0601538 0.082983 -0.0685118 0.0588525 -0.0721425 0.154414 -0.115027 0.152608 0.122195 0.107524 0.120172 0.151458 0.132817 -0.12364 -0.143717 -0.142901 -0.169845 -0.126446 -0.135343 -0.111263 -0.119406 -0.172936 -0.170424
internal_weight=0 90517.4 3294.1 87223.3 86039 8095.01 5222.67 77944 76722.3 2872.34 17408.5 15385 10784.9 9664.83 7818.2 1221.72 610.669 2023.48 2683.43 1184.27 1120.03 987.935 969.062 4600.13 995.42 1688.01 538.637 924.711 1846.64 1155.05 678.662 4574.95 1960.45 114.898 290.4 2614.5 532.965 1908.58 227.235 52.0753 72.0329 22.5213 32.5749 70.7084 62.8228 506.062 1681.35 706.094 180.209 38.9105 975.254 215.205 54.2843 132.094 47.026 49.5116 110.61 104.595 13.1648 25.1884 19.8248
internal_count=268644 240139 17299 222840 213752 29799 22747 183953 170078 7052 28505 26852 22331 18742 16455 13875 2182 1653 15117 9088 3589 2867 6480 4521 5663 9454 1585 5555 2287 5881 4674 4417 2433 526 1806 1984 3573 1127 326 181 597 150 1050 108 345 535 801 492 121 45 309 2608 331 722 205 447 661 1947 136 104 82
is_linear=0
shrinkage=0.1


Tree=14
num_leaves=63
num_cat=0
split_feature=36 59 70 103 73 38 37 59 72 33 46 107 10 70 52 109 38 31 14 4 108 40 31 70 28 96 98 16 45 64 117 73 53 0 71 34 38 135 30 102 115 71 69 76 29 25 60 25 58 45 17 62 70 108 109 135 69 136 121 32 32 103
split_gain=630.396 2055.48 1654.78 1484.31 746.392 1127.52 753.856 1608.5 721.366 707.589 687.984 667.917 640.927 591.655 846.254 545.598 500.832 503.075 654.972 465.639 447.579 396.691 316.824 403.598 461.629 316.587 277.797 257.501 212.054 211.242 207.773 198.961 195.728 190.386 178.792 174.184 170.415 164.095 214.527 163.225 162.254 155.681 151.924 151.351 178.012 139.463 138.732 180.762 123.155 119.579 203.192 104.047 63.1555 59.6723 54.5058 48.1312 52.4646 41.6429 29.4661 7.51231 2.28921 0.201081
threshold=0.90956562757492077 0.78641769289970409 -0.29625980556011194 -0.82195398211479176 -0.80452901124954213 0.96265652775764476 0.95081532001495372 0.81924158334732067 -0.64072483777999867 0.85915938019752514 1.136948883533478 -0.99937307834625233 0.61786073446273815 -0.51276093721389759 0.9590839445590974 -0.85383734107017506 0.92998358607292186 1.0026391148567202 0.92564150691032421 0.70800876617431652 -1.0385128855705259 1.001931965351105 1.0107443332672121 -0.2813164740800857 1.1630229353904726 -0.99998986721038807 -0.88957300782203663 1.0729732513427737 1.0618028640747073 0.35939638316631323 -0.92518725991249073 -0.8201819360256194 1.123293995857239 0.50188779830932628 -0.40574078261852259 0.92023617029190075 0.97188177704811107 1.0000000180025095e-35 1.0530399680137636 -0.82940295338630665 -1.426594018936157 -0.4729746133089065 -0.18596623092889783 -1.095044672489166 1.0963324904441836 1.303824841976166 0.70680144429206859 1.2797465920448305 0.86733254790306102 1.0994927883148196 1.0868687033653261 0.55802306532859813 -0.33414901793003077 -1.0271826982498167 -1.1015370488166807 1.0000000180025095e-35 -0.12999351322650907 1.0000000180025095e-35 -0.9877740442752837 0.85876554250717174 0.85876554250717174 -0.7806449532508849
decision_type=2 2 2 2 2 2 2 2 2 2 2 2 2 2 2 2 2 2 2 2 2 2 2 2 2 2 2 2 2 2 2 2 2 2 2 2 2 2 2 2 2 2 2 2 2 2 2 2 2 2 2 2 2 2 2 2 2 2 2 2 2 2
left_child=2 22 3 12 5 8 11 35 25 20 -9 36 37 19 -15 -13 33 18 -18 -14 32 28 23 46 34 -3 -10 -19 29 -5 57 -32 40 48 -25 -8 -6 42 -39 -26 -4 -30 -1 61 -45 49 52 -48 -11 51 -51 -24 -2 54 -22 56 -47 -7 -35 -55 -34 -23
right_child=1 4 9 21 6 30 7 10 26 16 -12 15 13 14 -16 -17 17 27 -20 -21 53 43 45 24 39 -27 -28 -29 41 -31 31 -33 60 58 -36 -37 -38 38 -40 -41 -42 -43 -44 44 -46 55 47 -49 -50 50 -52 -53 -54 59 -56 -57 -58 -59 -60 -61 -62 -63
leaf_value=-0.13392781098995704 -0.021537625589076254 0.044278834483830277 0.078966150841191907 -0.080542056190965661 0.018837505161754059 -0.13132044361832243 0.0027892473684418689 0.089411918853113281 0.094473115313566725 0.13693096487767617 0.034919736955483414 0.059775318783977405 -0.052756416024837494 0.083948981848975854 0.043351454714425308 0.14026469814834372 0.07813704437087815 0.12907883002130655 -0.016248523773177263 0.027236891033115204 -0.10147984921760284 -0.14773587934420135 0.029913125746069441 -0.089541908197801751 -0.037380438185965759 -0.073143791131199301 -0.12218566536587333 0.03197904503585057 -0.1220473235492309 0.12724461105833754 -0.12153455648629606 0.023423454697192481 -0.11031647563144127 -0.19765745604798346 0.00096753166592434929 -0.052652650375146118 -0.15296080640633611 -0.094618003440626902 0.17101983860457567 0.087769572335202328 -0.0044329949288458657 -0.049902805463550262 -0.031757926124781767 -0.12870941369779074 0.15401846736075522 -0.16200441721160497 -0.10057744065905803 -0.013279445645456391 0.25339435960201595 0.19103069801141695 -0.13996975669964903 0.1445887581570835 -0.13123723199360746 -0.10463331676220883 0.018264430607043594 0.056702163167464348 0.14157031405723589 0.079178911954400119 0.067441851339108266 -0.14552210289555187 -0.15076668526586351 -0.12326238892845112
leaf_weight=223.16107806004584 57.597037317231297 361.97919598221779 840.39957586303353 97.517181649804115 86.128708943724632 624.16277499869466 778.25143034383655 2722.4438304789364 1201.2429452985525 1601.5380110368133 15554.098236564547 12825.00471584592 943.68788367696106 5870.6747684841976 40948.067466981709 901.34934170544147 5911.4679869376123 2346.317910246551 839.63627582043409 3179.1049164384604 70.201145976781845 22.786279283463958 155.06780900806189 600.74341740459204 137.52152822166681 627.89056560024619 62.246668018400669 309.09189006686211 643.90155429393053 98.191583905369043 159.63388703018427 232.7233587000519 43.932593046687543 18.851099282503132 342.79095991328359 2084.3715643621981 175.17046803422272 52.851160345599055 71.574287608265877 430.27385149151087 322.91084739007056 558.58415146917105 418.42364517599344 26.215857531875372 147.94269131869078 53.456859450787306 531.49391162209213 428.3534183781594 96.254106268286705 26.276333842426538 63.039883650839329 161.54658985137939 590.81672244518995 114.41336714942008 82.905489852651954 18.032336384057999 6.3714464306831351 9.5417593047022802 5.3921151161193839 73.991153825074434 20.52839096263051 3.9373131468892089
leaf_count=1476 311 1023 1924 1959 230 3772 2935 3907 1814 1527 41868 25233 4915 12367 90773 821 10052 1884 2304 11755 1547 106 474 2490 384 3193 269 506 3646 212 889 660 1169 80 1105 8057 1172 256 120 553 892 2568 1814 202 256 252 2650 1468 119 52 362 218 2813 4098 384 31 4 24 6 545 120 28
internal_value=0 0.0330015 0.0486721 0.0409443 0.0397769 -0.00584812 0.0440365 0.0321199 0.0337191 0.0811143 0.0430368 0.0620458 0.0438788 0.045244 0.048442 0.0650607 0.0899789 0.080902 0.0663983 0.0089268 0.0182514 -0.0539444 -0.0392136 -0.0508906 -0.0137863 -0.0302043 0.0837993 0.117776 -0.0728234 0.0237093 -0.0927426 -0.0355539 0.0464176 0.13956 -0.0566594 -0.0375799 -0.0963331 -0.0469129 0.0581871 0.0574579 0.0558163 -0.0885344 -0.0672955 0.0774584 0.11146 0.0360828 -0.0857586 -0.0616188 0.143534 0.0595971 -0.0425913 0.0884242 -0.121493 -0.0830092 -0.0366397 -0.0865106 -0.129675 -0.128151 -0.138695 -0.120691 -0.123198 -0.14413
internal_weight=0 42009.6 66004.5 53306.6 38406.2 3279.42 35126.8 21139.2 2253.36 12697.8 18276.5 13987.7 51707.5 50941.5 46818.7 13726.4 11128.5 9406.51 6751.1 4122.79 1569.28 1599.08 3603.38 3119.59 1511.33 989.87 1263.49 2655.41 1398.19 195.709 1026.06 392.357 1227.77 1722.04 943.534 2862.62 261.299 766.01 124.425 567.795 1163.31 1202.49 641.585 200.882 174.159 483.791 1608.26 959.847 1697.79 405.931 89.3162 316.614 648.414 341.511 153.107 77.8606 59.8283 633.705 24.2432 188.405 64.461 26.7236
internal_count=268644 109034 159610 132453 95867 11644 84223 56767 6299 27157 45775 27456 123476 119810 103140 26054 16478 14746 12356 16670 10679 8977 13167 11774 4532 4216 2083 2390 8385 2171 5345 1549 4105 1732 3595 10992 1402 3666 376 937 2816 6214 3290 592 458 1393 7242 4118 1646 1106 414 692 3124 6574 1931 287 256 3796 86 4643 1289 134
is_linear=0
shrinkage=0.1


Tree=15
num_leaves=63
num_cat=0
split_feature=31 71 43 43 58 36 70 59 57 70 74 37 134 93 73 42 111 73 106 106 75 31 107 75 47 94 107 107 72 0 39 37 36 58 38 95 38 37 126 48 58 31 110 76 68 75 55 34 45 96 126 127 70 12 96 57 45 75 106 98 56 108
split_gain=572.69 703.153 1199.92 918.647 887.203 1351.82 1125.29 916.858 657.11 648.925 582.654 579.162 458.928 475.971 435.042 744.18 409.647 450.149 403.299 370.269 525.61 359.341 279.691 276.295 273.548 272.932 248.484 217.007 231.559 213.703 213.457 183.05 161.976 156.153 153.141 153.023 151.392 150.099 143.825 195.686 114.834 109.636 156.301 198.18 79.968 78.3202 64.155 166.362 58.8592 58.6823 249.275 50.556 40.0118 37.4037 31.6837 307.832 27.0992 23.7292 11.4994 7.21835 5.97551 1.26453
threshold=1.0058104395866396 -0.36403164267539972 1.1034321188926699 1.1288287043571474 0.87114274501800548 0.90842431783676159 -0.2927125990390777 0.79194760322570812 0.93365719914436351 -0.17468337714672086 -0.9124484360218047 0.98440837860107433 1.0000000180025095e-35 -1.1193769574165342 -0.78278556466102589 1.0615667700767519 -1.2480248212814329 -0.70902591943740834 -0.83437868952751149 -0.8454059064388274 -1.0241771936416624 1.0128318667411806 -0.99044620990753163 -1.1313609480857847 1.0722360610961916 -0.97963258624076832 -1.0072065591812132 -0.87797400355339039 -0.63744798302650441 0.39513909816741949 0.99200385808944713 0.98924386501312267 0.92755034565925609 0.93087831139564525 0.97383108735084545 -0.97414293885231007 1.011482357978821 0.94197434186935436 -1.7932445406913755 1.1525311470031741 0.81163990497589122 1.0100075602531435 -0.85715723037719715 -1.2449159622192381 0.012587628792971374 -1.067123234272003 0.92097613215446483 0.87687599658966076 1.1455282568931582 -1.055117607116699 -1.3130064606666563 -1.5077303647994993 -0.301559567451477 0.74212545156478893 -0.94464409351348866 0.86542582511901867 1.1655061244964602 -1.1408458352088926 -0.86162209510803212 -0.92326614260673512 0.94581565260887157 -0.90341901779174794
decision_type=2 2 2 2 2 2 2 2 2 2 2 2 2 2 2 2 2 2 2 2 2 2 2 2 2 2 2 2 2 2 2 2 2 2 2 2 2 2 2 2 2 2 2 2 2 2 2 2 2 2 2 2 2 2 2 2 2 2 2 2 2 2
left_child=1 2 4 26 5 6 -1 -7 38 22 25 -12 13 41 15 -6 34 -18 -16 20 21 -15 56 44 -22 -10 30 28 35 36 48 -24 -25 -32 -11 45 -28 40 39 -4 -30 42 43 -2 -21 -14 47 -29 -3 57 -51 -44 -37 -40 58 -56 -5 -43 -48 -49 -31 -39
right_child=12 3 8 9 14 7 -8 -9 10 16 11 -13 27 19 18 -17 17 -19 -20 23 24 -23 31 32 -26 -27 29 46 37 60 33 -33 -34 -35 -36 52 -38 61 53 -41 -42 49 51 -45 -46 -47 54 59 -50 50 -52 -53 -54 -55 55 -57 -58 -59 -60 -61 -62 -63
leaf_value=0.032117218037853633 -0.09108627108017224 0.092009833743930666 0.0051626659135816299 0.0010615195937909189 0.070180077134692903 -0.045858377111613342 0.080934982108074149 0.017396483776298263 0.00025113945804891775 0.032680061155656193 0.032379207084284177 -0.12903201554124841 -0.041142163495613872 0.0045923259394107978 0.053978673958393487 -0.034023533655487367 -0.089068162736370526 0.057822578537540817 0.10135418411842996 -0.12063473519183353 0.090659715834537163 0.055142554715231676 0.0079496167650530032 0.10232393711898505 0.037164614991974265 -0.098471570928380145 0.087844588430837617 0.13052372058988257 -0.069132460995953715 -0.13294826580042907 -0.1326100623175677 -0.099491739573357219 0.040585908688125109 0.06628217784550379 -0.086589811246237616 -0.16512092647856993 0.0071166325741647126 -0.11605722361903481 -0.13228328327695524 -0.083646406022314601 0.1137764455376466 0.11153552691837261 0.14127320831983112 0.049660158613811324 0.069047502013966588 0.1130882331120398 0.093154500941223961 -0.32311525079320202 -0.059293201170693914 0.086540977495780685 -0.15117510505983861 0.077150237223578444 0.12831514314031156 0.031863951713692273 -0.21919914386837727 0.11138728006939286 -0.15544726256374031 0.046477592251657783 0.12594846479986471 -0.17607994992284706 -0.23334869221765639 -0.18640940979009055
leaf_weight=40940.619017410092 117.50412935018539 187.52683231979609 390.45915194228292 11.717048615217207 1753.4830745980144 3245.0879087913781 5337.3758797636256 7797.7018349021673 487.36665179766715 163.27624950185418 4120.6244358606637 234.97248319908977 76.407454282045364 5800.590139053762 3974.3606044631451 1125.0935137122869 218.71001773327589 4524.7167356684804 3279.691532632336 87.770146321505308 1795.7217709720135 1856.2594130560756 655.4634574111551 1510.1295527555048 2043.8458890169859 658.29795659519732 6723.2326401304454 42.824212044477463 37.415029387921095 8.9508001990616339 133.72461665049195 209.17693682573736 591.37157379090786 56.007272578775883 316.00981113221496 77.773118514567614 240.61661314964294 30.288554891943932 331.70358935929835 680.55687980167568 415.51043577492237 1155.9399075359106 180.32763899862766 673.22089731693268 29.762982971966267 57.857737496495247 118.11792302131653 4.0397774577140835 29.796250626444817 1006.8119761645794 46.133802115917206 386.45637322962284 4.9421632885932913 14.488179612904785 29.669443167746067 556.30426952242851 198.24209346994758 58.921661540865898 1128.6319162398577 19.242747981101274 17.552824974060059 2.7902715802192679
leaf_count=111703 382 298 1364 47 3330 12597 9813 21837 1553 634 10946 1263 194 14703 8438 4172 851 14290 4271 463 1721 3607 1946 1777 4239 3422 7086 14 140 181 894 912 1173 69 5854 378 543 308 1832 3143 344 581 121 938 90 67 79 19 112 822 197 450 3 125 132 293 1272 71 372 82 73 13
internal_value=0 0.0348341 0.0309998 0.0556573 0.0350677 0.0302459 0.0377475 -0.0011919 -0.00866162 0.0275862 0.00698064 0.0236715 0.0536011 0.0477251 0.0623452 0.029452 0.0421473 0.0510497 0.075398 0.0392073 0.0319887 0.0168473 -0.043183 0.0766057 0.0621837 -0.0564749 0.0795539 0.0927642 0.0452997 0.0839766 0.00360308 -0.018043 0.0849506 -0.0738987 -0.0459587 -0.0405951 0.0850553 0.0836482 -0.0693812 -0.0512694 0.0986668 0.0799497 0.0574728 0.0287448 -0.0726014 0.025319 0.110337 0.0135538 0.0712653 0.0934044 0.0761257 0.0975516 -0.147588 -0.125414 0.113828 0.0946488 -0.146713 0.10838 0.122842 -0.201592 -0.199441 -0.121992
internal_weight=0 88066.6 74371.9 13694.7 67453.4 57320.8 46278 11042.8 6918.47 6297.31 5501.26 4355.6 19942.6 17340.8 10132.6 2878.58 5222.71 4743.43 7254.05 13715.5 11496.4 7656.85 1074.6 2219.03 3839.57 1145.66 7397.41 2601.82 702.985 6990.35 407.055 864.64 2101.5 189.732 479.286 216.98 6963.85 486.004 1417.21 1071.02 452.925 3625.32 1357.51 790.725 117.533 134.265 1898.83 66.1067 217.323 2267.81 1052.95 566.784 82.7153 346.192 1832.72 585.974 209.959 1214.86 1246.75 23.2825 26.5036 33.0788
internal_count=268644 234871 199809 35062 176161 155950 121516 34434 23648 25806 17184 12209 33773 31335 20211 7502 21629 15141 12709 27773 24270 18310 4177 3503 5960 4975 9256 2438 1447 7883 1373 2858 2950 963 6488 642 7629 805 6464 4507 484 3562 1891 1320 553 261 991 115 410 1671 1019 571 381 1957 876 425 1319 652 451 101 254 321
is_linear=0
shrinkage=0.1


Tree=16
num_leaves=59
num_cat=0
split_feature=31 136 71 41 71 35 52 45 108 134 71 106 82 31 93 73 38 71 51 72 107 38 37 102 55 80 44 102 60 109 122 70 31 34 36 105 31 39 34 101 5 32 127 54 38 73 61 103 32 60 31 31 31 95 101 71 6 121
split_gain=524.058 661.132 977.137 1198.77 853.165 1194.08 842.71 802.303 589.815 572.063 548.429 531.468 493.078 516.73 488.175 568.929 681.815 599.24 406.708 428.615 395.755 405.371 358.266 318.128 306.363 289.789 270.677 250.39 244.836 219.974 217.13 379.747 225.711 199.486 188.306 169.781 243.113 140.828 139.519 106.102 99.545 98.8739 94.5441 75.3364 73.9307 137.851 101.364 61.1139 49.6554 79.0721 20.7873 17.1164 10.4597 6.55427 3.48778 1.40894 0.749929 0.0227144
threshold=1.0038728117942812 1.0000000180025095e-35 -0.37626096606254572 1.058795750141144 -0.41769170761108393 0.91808062791824352 1.1242030262947085 1.1244912743568423 -1.0564544200897215 1.0000000180025095e-35 -0.32968243956565851 -0.86162209510803212 -1.393271744251251 0.99954518675804149 -1.1193769574165342 -0.76760759949684132 0.96560189127922069 -0.44214989244937891 0.9829811453819276 -0.59849119186401356 -1.0072065591812132 1.011482357978821 0.9254957139492036 -0.76578587293624867 0.92097613215446483 -1.0871133804321287 1.1482112407684328 -0.7829129397869109 0.74164867401123058 -0.89120790362358082 -1.1158010363578794 -0.30536331236362452 1.0061060786247256 0.92746633291244518 0.89293617010116588 -0.82254919409751881 1.00712525844574 1.0532742142677309 0.91257935762405407 -0.87618973851203907 0.61650198698043834 0.95904293656349193 -1.5174579024314878 1.0770245194435122 0.96514049172401439 -0.7454366385936736 0.65360483527183544 -0.78354534506797779 0.95695140957832348 0.71411249041557323 1.0047161579132082 0.94172418117523204 1.0045922398567202 -1.0399069190025327 -0.86565849184989918 -0.33828711509704584 0.6934202015399934 -0.91283261775970448
decision_type=2 2 2 2 2 2 2 2 2 2 2 2 2 2 2 2 2 2 2 2 2 2 2 2 2 2 2 2 2 2 2 2 2 2 2 2 2 2 2 2 2 2 2 2 2 2 2 2 2 2 2 2 2 2 2 2 2 2
left_child=1 2 3 4 5 -1 20 -6 37 14 -10 30 41 18 35 16 17 -16 29 -20 22 -22 -4 25 39 -5 34 33 -18 -14 31 32 -11 -15 -17 36 42 -8 -33 -13 -38 51 -2 -25 46 -46 -26 -29 52 -50 -32 57 -37 -52 -41 -28 -53 -3
right_child=9 12 6 23 7 -7 8 -9 10 11 -12 24 13 27 15 26 28 -19 19 -21 21 -23 -24 43 44 -27 55 47 -30 -31 50 38 -34 -35 -36 48 40 -39 -40 54 -42 -43 -44 -45 45 -47 -48 -49 49 -51 53 56 -54 -55 -56 -57 -58 -59
leaf_value=0.020924706223270924 0.088799257697242742 -0.12166327823392736 0.080659017828227736 -0.038911680513090019 0.082184713105292434 -0.080942707354058868 -0.087210723570182461 0.011967298843742341 -0.020247996202080829 -0.10432474920072617 0.052837297096153625 0.078767995357639203 -0.13217249763673758 0.022014738298989076 0.022356430772110369 0.10330989547194842 -0.10816457171395022 0.090222640565545131 0.078013045684406035 0.028888584804550976 0.075645238623855707 0.007645636762330277 -0.10443708485514186 -0.12471946555653311 0.10290075930251155 0.044904968480376582 -0.14963282504233899 0.19412132946000596 -0.01229253691878409 0.045712860479837629 0.20788920082776263 0.090624544022112466 0.018125566351912974 -0.08616086711130419 0.055360233774331552 0.23405172617791514 -0.13917901515630204 0.064750561221145336 -0.05114878801761466 -0.25785032876681263 0.079444906192334977 0.11660505482347201 -0.0020377414283109688 -0.059222702181840496 -0.1640415253569015 0.16958367670269145 0.1593131875118117 0.018229045936979507 -0.093231151155846972 0.13079428349339486 0.091515871024118428 -0.1866588282765981 0.16882225138180718 0.14476447689967023 -0.17923058207407269 -0.1946189016650624 -0.15656606616331883 -0.10412819985040389
leaf_weight=38719.425873551518 140.55215252190828 0.75342656299471755 176.83749689906836 2085.2528491225094 4342.7456198045984 1185.9465334117413 604.15977893117815 2602.3186391126364 1542.3216196224093 297.77538281679153 3071.4085629237816 21.318623945116997 159.81822761148214 3807.1438716202974 11758.561289314181 1068.099239975214 456.35265394300222 1462.9151143282652 7772.0103001445532 2302.2446261700243 8862.0313296876848 972.92401130497456 255.88747506216168 420.46313712745905 2524.7512320019305 514.21946961805224 46.992301069200039 102.02326024323702 639.86507702991366 123.03347610123456 39.943186983466148 499.73654275387526 304.43156462162733 178.46342546492815 3512.0304420106113 45.886413305997849 20.971086591482162 67.832151850685477 80.610058065503836 6.5575580298900595 3028.6165366321802 14.283746138215063 620.0662917047739 301.57719960436225 27.296016413718462 22.671523701399565 364.50497411191463 24.496619120240211 16.976778499782085 218.99027890712023 40.631555840373039 83.686292633414268 52.949046790599823 53.621797457337379 40.445502325892448 8.1728786379098874 9.190726086497305 37.871718011796474
leaf_count=121639 204 7 326 8148 7420 5997 6132 7550 5240 1129 12575 18 648 6854 26546 942 2155 1522 8556 4045 11152 2351 1873 2343 1773 1730 227 54 2013 275 18 622 694 590 6084 25 132 150 496 29 2698 16 1519 1663 174 25 142 71 58 183 30 340 24 14 178 34 40 1151
internal_value=0 0.0304777 0.0262 0.0194112 0.023527 0.0178973 0.0480993 0.0558742 0.0156571 0.0464882 0.0284056 0.0798693 0.049715 0.0515587 0.0402388 0.0334401 0.0235821 0.0298656 0.0634663 0.0667868 0.0648003 0.0689184 -0.0287957 -0.038642 0.103066 -0.0223313 0.0638902 0.0215675 -0.0522038 -0.0547968 0.0268864 0.013207 -0.0424229 0.017171 0.0665422 0.0713257 0.0653263 -0.0718715 0.0709322 -0.106272 0.0779415 -0.133273 0.0147477 -0.0973632 0.107932 -0.0126674 0.110018 0.160065 0.139601 0.114677 0.147431 -0.160415 0.199106 0.12181 -0.190199 -0.156298 -0.183681 -0.10447
internal_weight=0 80340.4 65725.4 50171.9 46850.4 39905.4 15553.4 6945.06 5285.72 27422.3 4613.73 4324.3 14615 14469.2 23098 18953 14317.7 13221.5 10357.1 10074.3 10267.7 9834.96 432.725 3321.51 3007.55 2599.47 4635.29 4112.13 1096.22 282.852 1316.75 1182.55 602.207 3985.61 4580.13 4145.01 3810.21 671.992 580.347 68.3217 3049.59 145.786 760.618 722.04 2939.22 49.9675 2889.26 126.52 334.803 235.967 134.197 131.502 98.8355 94.2534 47.0031 55.1652 92.877 38.6251
internal_count=268644 218936 196289 156490 142606 127636 39799 14970 24097 49708 17815 5342 22647 21093 44366 39523 32236 28068 13524 12601 15702 13503 2199 13884 2339 9878 7287 7569 4168 923 3003 2941 1823 7444 7026 4843 4553 6282 1118 225 2830 1554 1723 4006 2114 199 1915 125 290 241 62 1538 49 44 207 261 380 1158
is_linear=0
shrinkage=0.1


Tree=17
num_leaves=57
num_cat=0
